0 9972260 8631605 8499289
1 9992257 8603261 8480205
2 10059432 8562184 8437410
3 9864875 8565581 8439433
4 10025459 8531651 8412490
5 10056709 8548859 8425487
6 9913728 8589279 8467337
7 9781918 8621652 8496133
8 9623697 8677348 8554670
9 9506814 8756232 8634369
10 9278882 8815424 8695889
11 9414820 8872436 8744765
12 9014265 8891697 8769015
13 9314916 8880721 8752006
14 9333630 8841915 8717855
15 9319386 8807185 8679783
16 9655603 8760368 8632662
17 10124016 8688591 8562833
18 10208742 8658649 8534822
19 10298414 8595037 8465254
20 10251168 8550260 8421704
21 10096553 8523956 8396905
22 9704627 8507922 8378470
23 9132555 8536858 8413597
24 8511600 8598915 8470278
25 7891247 8626513 8501551
26 7468299 8694348 8569156
27 7200334 8769203 8644921
28 6851466 8857667 8733225
29 6572203 8935361 8810459
30 6092779 9015484 8888283
31 5799980 9025801 8900891
32 5490720 9062937 8936406
33 5869610 9084158 8953859
34 6263972 9063337 8936952
35 6447894 9040715 8912466
36 6438783 8976572 8846464
37 6770934 8895617 8768154
38 6997728 8846570 8715951
39 7213213 8788190 8666289
40 7122454 8759198 8633952
41 7039499 8741413 8615040
42 7059639 8707497 8582063
43 7260223 8722190 8593705
44 7462714 8733705 8602682
45 7172850 8735472 8614091
46 6847356 8782113 8653599
47 7066534 8809539 8683785
48 7006014 8855933 8731680
49 6916831 8911711 8784641
50 6973216 8950081 8829017
51 7350509 9032268 8906976
52 7074724 9041775 8920480
53 7262190 9036509 8910493
54 7498214 9029651 8898813
55 7676101 9011167 8890506
56 8077968 8940611 8806751
57 8358587 8863394 8739238
58 8514969 8802645 8676355
59 8737871 8747157 8617316
60 8678290 8716233 8587050
61 8554182 8691766 8564322
62 8853854 8678116 8545788
63 8728863 8673935 8546059
64 8440741 8681712 8552064
65 8049838 8701447 8571035
66 7978462 8728559 8601735
67 8257600 8749065 8624412
68 8234283 8813036 8688639
69 7760895 8858528 8734748
70 7577408 8913926 8791197
71 7630530 8935739 8805611
72 7281337 8983663 8862002
73 7376775 9002836 8879760
74 7605413 9003796 8869409
75 7734902 8947155 8820185
76 8190253 8902013 8777281
77 8310620 8843886 8714094
78 8606734 8778333 8648585
79 8777355 8728235 8598433
80 8639658 8679388 8548871
81 8695280 8616795 8493061
82 8849248 8605966 8479489
83 8843469 8603250 8476009
84 8909011 8606288 8478543
85 8572183 8618522 8483197
86 8057753 8677141 8547602
87 8013350 8756640 8626986
88 7811145 8830805 8702010
89 7596928 8882369 8758120
90 7329690 8916349 8790178
91 7451479 8978512 8855063
92 7518273 8987184 8862207
93 7595943 8971509 8846412
94 7522500 8954230 8826896
95 7945575 8940812 8813935
96 8210763 8882181 8750322
97 8152461 8813925 8682585
98 8506435 8760360 8636412
99 8792899 8710444 8581042
100 9079108 8654752 8527415
101 9035423 8652656 8524001
102 9184204 8612212 8484739
103 8978924 8597929 8465627
104 8883207 8610067 8479429
105 8467383 8629182 8507392
106 8149851 8706260 8575354
107 8044302 8794578 8671284
108 7937701 8887214 8763941
109 8007887 8924651 8809606
110 7703188 8998704 8877378
111 7537907 9034104 8913863
112 7334843 9067552 8944594
113 7782750 9038439 8912716
114 7961854 9006643 8879421
115 7927522 8990643 8861825
116 8326749 8916957 8790501
117 8334299 8873912 8750492
118 8885894 8795333 8662076
119 9306960 8702577 8572354
120 9181495 8681634 8550774
121 8810902 8622522 8492164
122 9057966 8565652 8440152
123 8553580 8559902 8438315
124 8401076 8627510 8502873
125 8671676 8648677 8521112
126 8638410 8715029 8593473
127 8580920 8775488 8652151
128 8165966 8818102 8694541
129 7640526 8911192 8785982
130 7490554 8965052 8840723
131 7842646 8995222 8867289
132 7660980 9001716 8876689
133 7816831 9030937 8903245
134 8034028 9013386 8887525
135 8249518 8981872 8854496
136 8538640 8936364 8809246
137 8721859 8871100 8740256
138 8833883 8811456 8683284
139 8920920 8731972 8601090
140 9140771 8664758 8539388
141 8964538 8587979 8456097
142 9051184 8585088 8460302
143 9178999 8565005 8437918
144 9280236 8607038 8478024
145 9135866 8639567 8515637
146 8498478 8716441 8600335
147 8359363 8821478 8697048
148 8200717 8887569 8763453
149 7825013 8943563 8819660
150 7398585 8993673 8862436
151 7486000 9023457 8897125
152 7579079 9034020 8908492
153 7867425 9016100 8890448
154 8087505 8996530 8872882
155 8222788 8925449 8793759
156 8224564 8882909 8750633
157 8493064 8813610 8689160
158 8822910 8796504 8673678
159 8906770 8730519 8602898
160 9162560 8673435 8550404
161 9040414 8650839 8527609
162 8760923 8685197 8560730
163 8447889 8674158 8540620
164 8731875 8679302 8554319
165 8982915 8664853 8541441
166 8607698 8665054 8543372
167 8094510 8722463 8594795
168 7760379 8783976 8655876
169 7784394 8852435 8733726
170 7940748 8891789 8768394
171 7936096 8919912 8796662
172 7588334 8938291 8812664
173 7846452 8961547 8837998
174 8078561 8954151 8826808
175 8393709 8928101 8800135
176 8597984 8887505 8759968
177 8549070 8827374 8699985
178 8546493 8762586 8636142
179 8864099 8688308 8557476
180 9223917 8648757 8520365
181 9005190 8594367 8470424
182 9025112 8588875 8463713
183 8859276 8587723 8460985
184 8615619 8589114 8459775
185 8498194 8619299 8491227
186 8403900 8671003 8545050
187 8500124 8736454 8614058
188 8295627 8852105 8729001
189 8130552 8923178 8800942
190 7926521 8958101 8836915
191 7831950 8998259 8881078
192 7657038 9035416 8908969
193 8309568 9026637 8900707
194 8515414 9017066 8887996
195 8887955 8983591 8859006
196 8888264 8923936 8787432
197 8908115 8880908 8750491
198 8941563 8813608 8679856
199 9044906 8733265 8599101
200 9371603 8675463 8546145
201 9286258 8665608 8539384
202 9354021 8647438 8521912
203 9308706 8649181 8526202
204 9170824 8677958 8551913
205 8975553 8687622 8565661
206 8696407 8731199 8609370
207 8618299 8779844 8657075
208 8419889 8826478 8700772
209 8273347 8871085 8743397
210 8145480 8924255 8803045
211 8083464 9002553 8876730
212 8233950 9019645 8888657
213 8605479 8995602 8876614
214 8727947 8974862 8844147
215 8915284 8920551 8793505
216 9265105 8856424 8723877
217 9349769 8795364 8661113
218 9103616 8772194 8641801
219 8981158 8722431 8588190
220 9451061 8662970 8535050
221 9463703 8646678 8524172
222 9532037 8626718 8499761
223 9287058 8621136 8496196
224 9313385 8624736 8496228
225 9242343 8649641 8523339
226 9007936 8729548 8606374
227 8938839 8777073 8653029
228 8746491 8870124 8747575
229 8573698 8958703 8834557
230 8369122 9006176 8877847
231 8366709 9016797 8895957
232 7930984 9046871 8918814
233 8005066 9053160 8926092
234 8553663 9037737 8914670
235 8863013 8956286 8832570
236 9070791 8877268 8745470
237 9011520 8807023 8677474
238 9106058 8753859 8630852
239 9554953 8698658 8566150
240 10161460 8635826 8509354
241 10029601 8610803 8485700
242 10016503 8587570 8461073
243 9820525 8576947 8448611
244 9889855 8574249 8451885
245 9668119 8638076 8512116
246 9139273 8687038 8564468
247 8641802 8726046 8595951
248 8189996 8772626 8653903
249 8272494 8854708 8733050
250 8196484 8916469 8791406
251 8303259 8944544 8819394
252 8180293 8976043 8848774
253 8406449 8980869 8856674
254 8671107 8967811 8841272
255 8753442 8940834 8812863
256 9154922 8876039 8747861
257 9252241 8823510 8696073
258 9374425 8755603 8629211
259 9470722 8687661 8560633
260 9740638 8691776 8561400
261 9690978 8670289 8541684
262 9796820 8647028 8520623
263 9377785 8639572 8512350
264 8909987 8629985 8506319
265 9020485 8647684 8521259
266 8940409 8690294 8567349
267 8845569 8732097 8603898
268 8502079 8786780 8662756
269 8252686 8864264 8742924
270 8291538 8910571 8786372
271 8207482 8955408 8832153
272 8126103 8990343 8863893
273 8408536 9027704 8909842
274 8734086 8958756 8833194
275 8848928 8932238 8807378
276 9320490 8879565 8750293
277 9464503 8839829 8710929
278 9321359 8773321 8641681
279 9279757 8639684 8511800
280 9508614 8600540 8472259
281 9360363 8605887 8479807
282 9597907 8597471 8465742
283 9406053 8566956 8439086
284 9166521 8566145 8438941
285 8874894 8603529 8479255
286 8698888 8667643 8544246
287 8609890 8682397 8559622
288 8441019 8736938 8618931
289 8130424 8843822 8721316
290 7963039 8954685 8828076
291 8205601 8971646 8848572
292 8158553 8985263 8858980
293 8198834 8977483 8852354
294 8000671 8976089 8849469
295 8090896 8953859 8829980
296 8684505 8898922 8769988
297 8803597 8817733 8687166
298 8962383 8735636 8604103
299 9350813 8670078 8546444
300 9448568 8622148 8495791
301 9212303 8611548 8483703
302 9309377 8572462 8440715
303 8937565 8594228 8468261
304 8891643 8626706 8500592
305 8693358 8637759 8511022
306 8295023 8709949 8588520
307 8195968 8778961 8649730
308 7940175 8849460 8725548
309 7698567 8909175 8783036
310 7586314 8937214 8817506
311 7612630 8998032 8874742
312 7572462 9031762 8912348
313 7848526 9008890 8883851
314 7954111 8999725 8872527
315 8346171 8914665 8783975
316 8539883 8849433 8720628
317 8699234 8838168 8709336
318 8783274 8768722 8639553
319 8842628 8754806 8626644
320 9084587 8721399 8593511
321 8985416 8681578 8554836
322 9036215 8665438 8535712
323 8763281 8649584 8525172
324 8807213 8680676 8552248
325 8421160 8702692 8577527
326 8262011 8753872 8631284
327 8165399 8810065 8683803
328 8211026 8877180 8751065
329 7705349 8925519 8804571
330 7487436 8998925 8869348
331 7539210 9026211 8902724
332 7051095 9026128 8898398
333 7265924 9033402 8906696
334 7831361 8986370 8857357
335 8251763 8915701 8786373
336 8355714 8878372 8749255
337 8244841 8845564 8716738
338 8636635 8772292 8643275
339 8792782 8716726 8594582
340 8889846 8682005 8550149
341 8741736 8667170 8540053
342 8813851 8637312 8513329
343 8551137 8638771 8511238
344 8355450 8650826 8522631
345 8216377 8688753 8565269
346 8080552 8772119 8647474
347 8033595 8831843 8709491
348 7908470 8905678 8783931
349 7492418 8964486 8838492
350 7223977 9000533 8872374
351 7366223 9032787 8909386
352 7309740 9043383 8917352
353 7502937 9035047 8914268
354 7732925 9040954 8914268
355 8110848 8991351 8863976
356 8343029 8934037 8802216
357 8607075 8874404 8744306
358 8845884 8793093 8668715
359 8936460 8714215 8588359
360 8846942 8691925 8564531
361 8478624 8702686 8577013
362 8916669 8700181 8575554
363 8737563 8684737 8560071
364 8754786 8637153 8507010
365 8421393 8698962 8573335
366 8142416 8755474 8631861
367 7918018 8811318 8683976
368 7847334 8892979 8771516
369 7592702 8950218 8822072
370 7442490 8965385 8843572
371 7668194 8989919 8862100
372 7583104 8987932 8863108
373 7611973 8988802 8861315
374 7873338 8968600 8842783
375 7992733 8954381 8827930
376 8173736 8904082 8774967
377 8220031 8817556 8686636
378 8443672 8768778 8639144
379 8645755 8708515 8577446
380 9058305 8668898 8545043
381 8942675 8665807 8538774
382 8895185 8652798 8525473
383 8651982 8639985 8515146
384 8589415 8615495 8486746
385 8441352 8602430 8473288
386 8270793 8668643 8545578
387 8101411 8740626 8613211
388 8048286 8815036 8690176
389 7807119 8870077 8742452
390 7575521 8980052 8857473
391 7787585 9018103 8894571
392 7643306 9053745 8929782
393 7832465 9055597 8933013
394 7961681 9008672 8877802
395 7874555 8954275 8827332
396 8022709 8919698 8787277
397 8280232 8815564 8680485
398 8615696 8776572 8645339
399 8956340 8734607 8605265
400 9329393 8687068 8554214
401 9034855 8664454 8540671
402 9013087 8628412 8497262
403 8598083 8578211 8453204
404 8547022 8632381 8503144
405 8295496 8674079 8547656
406 8195549 8727506 8606961
407 8026786 8805473 8675653
408 7846297 8867468 8744058
409 7841984 8922290 8797619
410 7839766 8925213 8797824
411 7926240 8943166 8818789
412 7741176 8999830 8875218
413 7737560 9033587 8908922
414 7452439 9050859 8926753
415 8028010 8994045 8865141
416 8374872 8948918 8828331
417 8383243 8912489 8778094
418 8675065 8832541 8700921
419 8626384 8745341 8620305
420 8790236 8717301 8590182
421 8820377 8686188 8556605
422 8906317 8638377 8514014
423 8796276 8592934 8465109
424 8591404 8562436 8435347
425 8373818 8569830 8442284
426 8157243 8643696 8522323
427 7965073 8727309 8604690
428 7945011 8770540 8650055
429 7764932 8847504 8724809
430 7224546 8909451 8785747
431 7416756 8941165 8816714
432 7511675 8914177 8788730
433 7876195 8876988 8749038
434 7906871 8828975 8697380
435 8083220 8812667 8684256
436 8124846 8829051 8700800
437 8446215 8819816 8692358
438 8727711 8745789 8618472
439 8946493 8692565 8569344
440 9092086 8685970 8559401
441 8908603 8644974 8517797
442 9042216 8602220 8475649
443 8770538 8624678 8497065
444 8559975 8664330 8536270
445 8395968 8678974 8556233
446 7969264 8753654 8627539
447 7760659 8796768 8677899
448 7419247 8878442 8762569
449 7570591 8944285 8822719
450 7391351 9014654 8894065
451 7630976 9038736 8915476
452 7518695 9048054 8927751
453 7859674 9038859 8916273
454 7962561 9027105 8903354
455 8299366 8994798 8871648
456 8327862 8894238 8764800
457 8427177 8831084 8700226
458 8588989 8754350 8626063
459 8792087 8706922 8577890
460 9032895 8662958 8532289
461 8994599 8662918 8534660
462 9247503 8655049 8525888
463 9028776 8675388 8551780
464 8769360 8741844 8615969
465 8288308 8780166 8654650
466 8172583 8844954 8721035
467 7968809 8886436 8763712
468 7642963 8910667 8786209
469 7523721 8938011 8816267
470 7424588 8979492 8860436
471 7741902 9031804 8909068
472 7289943 9053149 8925498
473 7502200 9029397 8903163
474 7793778 8975098 8846691
475 8284573 8927705 8797207
476 8520027 8883969 8759703
477 8599980 8862005 8739016
478 8807774 8820938 8693505
479 8952117 8751750 8621249
480 9094138 8703419 8573451
481 8918703 8685483 8558075
482 8912212 8673876 8545504
483 8760202 8683769 8558969
484 8705466 8727563 8598290
485 8556516 8741161 8615707
486 8180081 8780969 8660955
487 8129481 8835621 8710859
488 8019487 8912861 8790519
489 7758461 8970248 8851134
490 7613328 9003727 8882403
491 7578147 9041575 8916565
492 7425853 9053781 8926057
493 7427498 9027190 8903580
494 7573783 8969088 8844750
495 7853156 8927663 8800345
496 8234319 8887038 8755067
497 8374562 8860423 8730899
498 8600988 8811500 8681553
499 8949199 8750014 8622089
500 9110249 8707600 8586005
501 8829150 8672478 8545355
502 9080614 8652616 8524096
503 8681539 8630523 8501026
504 8434608 8617759 8493558
505 8230682 8614685 8486089
506 8015499 8681628 8556820
507 7843057 8743888 8617909
508 7635686 8815797 8692807
509 7457001 8887886 8761183
510 7425720 8944627 8817617
511 7850885 9007139 8878116
512 7840841 9052555 8926609
513 7971297 9035812 8914114
514 7990462 9011229 8884472
515 8271133 8934251 8801564
516 8440547 8863733 8736440
517 8359999 8841278 8714921
518 8213241 8761012 8630423
519 8571113 8765870 8636037
520 8973710 8731696 8607237
521 8954055 8704305 8577707
522 9025114 8687990 8560414
523 8790305 8700727 8577688
524 8593808 8728662 8603477
525 8327888 8750495 8624831
526 7988082 8809328 8683778
527 7704858 8844526 8717073
528 7705976 8882036 8759832
529 7689016 8928524 8805119
530 7444788 8985421 8871573
531 7432005 9057166 8924171
532 7467185 8997009 8869838
533 7751839 8947708 8818857
534 7832899 8912716 8791011
535 7964547 8891321 8765187
536 8102549 8858868 8734272
537 8368192 8821967 8692218
538 8505204 8780088 8650459
539 8801510 8719644 8588278
540 9171252 8688224 8559909
541 9017339 8639445 8518058
542 8884712 8692653 8566814
543 8599029 8759966 8635865
544 8582409 8824066 8706974
545 8322473 8890492 8766854
546 8137426 8908027 8783282
547 7810660 8913831 8790995
548 7765152 8987129 8867760
549 7765958 9055863 8933452
550 7838489 9088699 8963393
551 7912515 9101130 8977357
552 7787751 9077966 8950986
553 7579131 9037003 8908531
554 7378671 8971765 8844338
555 7899568 8898381 8770285
556 8410320 8834753 8704692
557 8576238 8799562 8669711
558 8781776 8769676 8641338
559 8794750 8729983 8600552
560 8758980 8688027 8560246
561 8753227 8677203 8551710
562 9000662 8701614 8575328
563 8760051 8707749 8582877
564 8554731 8766778 8643885
565 8021308 8839364 8716554
566 7869973 8862415 8738638
567 7848700 8883479 8758272
568 7691935 8936379 8810381
569 7610892 8988693 8867356
570 7438643 9033897 8916911
571 7596529 9041256 8911436
572 7682926 9035436 8907765
573 7734411 9015212 8889525
574 7553952 9021622 8893913
575 7880669 8995344 8866164
576 8052026 8937535 8807279
577 8207426 8899597 8771637
578 8504500 8858342 8723093
579 8834948 8777808 8649371
580 9116501 8714953 8582599
581 8749793 8693261 8568816
582 8793363 8683336 8549902
583 8311914 8671562 8542545
584 8509535 8680537 8552930
585 8464644 8701839 8578120
586 8394484 8738167 8614230
587 8012047 8745105 8618564
588 7632849 8826007 8698664
589 7576127 8950401 8828778
590 7562896 9009107 8884860
591 7682878 9002956 8878655
592 7485348 9077575 8956933
593 7719303 9098524 8977422
594 7891481 9078926 8950842
595 8057884 9052729 8928520
596 8158120 8977655 8846691
597 8357268 8900463 8770705
598 8594962 8812598 8686886
599 8663874 8748331 8620423
600 8779654 8720963 8590047
601 8696984 8695163 8567353
602 9026948 8659068 8531270
603 8535004 8677557 8550300
604 8568306 8686240 8558245
605 8417020 8701529 8577307
606 8084945 8761595 8637201
607 8070176 8812789 8692596
608 7795422 8893885 8775572
609 7751322 8936379 8815698
610 7575365 8979492 8858632
611 7591006 9048171 8922117
612 7521057 9079545 8955208
613 7749714 9061338 8933284
614 7647197 8976137 8847021
615 7876671 8884273 8755364
616 8122449 8828584 8701141
617 8514337 8819322 8695894
618 8971672 8796605 8668829
619 9029484 8720807 8594995
620 9000703 8675444 8544292
621 8713861 8627345 8496689
622 8599430 8570409 8443401
623 8696655 8581935 8458537
624 8627820 8628419 8505992
625 8228512 8712542 8588378
626 7769217 8791999 8667854
627 7832881 8836466 8715846
628 7857818 8906528 8786749
629 7986113 8969105 8843968
630 7774856 8992523 8865684
631 7709902 8994359 8868036
632 7549941 8981287 8851159
633 8017962 8910603 8786481
634 8219168 8906732 8780492
635 8343575 8886523 8757105
636 8403823 8850168 8719148
637 8449032 8825153 8700069
638 8419230 8795718 8669345
639 8493016 8763099 8638708
640 8787213 8698701 8566793
641 8796825 8637901 8502896
642 8955030 8564533 8432850
643 8643221 8607963 8485282
644 8518749 8647137 8526140
645 8286221 8685091 8555836
646 8114479 8758416 8631310
647 8047151 8773518 8644986
648 7871351 8834709 8714008
649 7671413 8925267 8805148
650 7574931 8980299 8854414
651 7744749 9013880 8900369
652 7471058 9016508 8892541
653 7668529 8999110 8870202
654 7714883 8944720 8819139
655 8224706 8903501 8778008
656 9005915 8915761 8789325
657 9447002 8847807 8714385
658 9407201 8766702 8636899
659 9282579 8684980 8551161
660 9285093 8629904 8503924
661 8561914 8630813 8513310
662 8849835 8640311 8513714
663 8902057 8675397 8550565
664 9033301 8654974 8532184
665 8362367 8694340 8568226
666 7876880 8774888 8650269
667 7663906 8820396 8696722
668 7703385 8861230 8735422
669 8059658 8851398 8722078
670 7790060 8906749 8786765
671 7680579 8944726 8818894
672 7400546 8934252 8804062
673 7699753 8938422 8811927
674 7659732 8928163 8798149
675 8197806 8891213 8761331
676 8482657 8822500 8700432
677 8591039 8815452 8688008
678 8743994 8802982 8676137
679 8834358 8753637 8620473
680 8854817 8715833 8590041
681 8849260 8692531 8561673
682 9000737 8667209 8539960
683 8614130 8656280 8529412
684 8424340 8673537 8544180
685 8162477 8693635 8574609
686 8037737 8772029 8642870
687 7890411 8819460 8698361
688 7681351 8867168 8744063
689 7324309 8946012 8820453
690 7057866 9017532 8890441
691 7249313 9029057 8901544
692 7246661 9059217 8934833
693 7830497 9030248 8903230
694 8079657 8989079 8856298
695 8184157 8934742 8806278
696 8422947 8860652 8728520
697 8496638 8774012 8645327
698 8669415 8703780 8574417
699 8580718 8618463 8488824
700 8621798 8583948 8448770
701 8797650 8616934 8490363
702 8808063 8664830 8536320
703 8653798 8672563 8544547
704 8537953 8632630 8502760
705 8345013 8620603 8493929
706 8097044 8667228 8541719
707 8121163 8762467 8640117
708 8136084 8852360 8729465
709 7788153 8911491 8784135
710 7308699 8965189 8842021
711 7404582 8971046 8843435
712 7447539 8984604 8861310
713 7623508 9018984 8893862
714 7733168 9000684 8870637
715 8028978 8977394 8854166
716 8376529 8901910 8774695
717 8529764 8845566 8716965
718 8795368 8758520 8630578
719 8966435 8701680 8572853
720 9052896 8669887 8538607
721 8953461 8617448 8491141
722 8966775 8576063 8442055
723 8613494 8585750 8462656
724 8556919 8627796 8504191
725 8188344 8670118 8541865
726 7993986 8732828 8604464
727 8070362 8775037 8650705
728 7916187 8826291 8700770
729 7584656 8888070 8766297
730 7458564 8953140 8833185
731 7533532 8991111 8865050
732 7425725 9003235 8869202
733 7821760 8994551 8868970
734 7827060 8956601 8826563
735 8041966 8915650 8791029
736 8250429 8873019 8743447
737 8323232 8858808 8733047
738 8503248 8816719 8690169
739 8631104 8774829 8645264
740 8623356 8722196 8592646
741 8509354 8665992 8536747
742 8764361 8610002 8476317
743 8876540 8536732 8405766
744 8593791 8574766 8447575
745 8272699 8599416 8473761
746 8004592 8681230 8555256
747 7960814 8703996 8582196
748 8129569 8752753 8626281
749 7850464 8809677 8684182
750 7569872 8908979 8785547
751 7412762 8984969 8858317
752 7205464 8979408 8852793
753 7368181 8981179 8853648
754 7563161 8948477 8819751
755 8018748 8937057 8812828
756 8478477 8895749 8764791
757 8367256 8838450 8708114
758 8267791 8772153 8644548
759 8431647 8687938 8561553
760 8867290 8630821 8499850
761 8751106 8610157 8480678
762 8678943 8614711 8486096
763 8374136 8643033 8517373
764 8538570 8681977 8553395
765 8590103 8663937 8534711
766 8442266 8716215 8590315
767 8114973 8769490 8646335
768 8084046 8839024 8716123
769 7904117 8907062 8781493
770 7577309 8940049 8812253
771 7458937 8970474 8844233
772 7250559 8984001 8862630
773 7519736 8949545 8832665
774 7861289 8974247 8848891
775 8542273 8915559 8786013
776 8900757 8840963 8708669
777 9135157 8728984 8596519
778 9474842 8611619 8482661
779 9669460 8562085 8435051
780 9928680 8596353 8465353
781 10011707 8531836 8400836
782 10017531 8488220 8360163
783 9822496 8481531 8355969
784 9889547 8541248 8413465
785 9911883 8566356 8443551
786 9892206 8624549 8499537
787 9923377 8646126 8523300
788 9513714 8642734 8520108
789 9323068 8713708 8591750
790 9148732 8790421 8674030
791 9231421 8789731 8666552
792 9372821 8793744 8675618
793 9739351 8777731 8651996
794 9590382 8803129 8673889
795 9693415 8744993 8618060
796 10107172 8699777 8572462
797 10396176 8652192 8524739
798 10397178 8616644 8485001
799 10325529 8564472 8441086
800 10231848 8523464 8403502
801 9897805 8552262 8426095
802 9588213 8543218 8414601
803 9061902 8574951 8443926
804 8688208 8610560 8487659
805 8117666 8605158 8478221
806 7609551 8702652 8576545
807 7144798 8794214 8673491
808 6626677 8857462 8734546
809 6338869 8960853 8835786
810 6044878 9018870 8897889
811 5832600 9054426 8926807
812 5656834 9105482 8980096
813 5906555 9122466 8996148
814 6005416 9103372 8979858
815 6294452 9053536 8923662
816 6395179 8984499 8854737
817 6536068 8958237 8824451
818 6771103 8907058 8774658
819 7060242 8843482 8709482
820 7251946 8763730 8635052
821 7201247 8760554 8629767
822 7445015 8702357 8573247
823 7194390 8686676 8567087
824 7031025 8721551 8597383
825 6813950 8769640 8644901
826 6870027 8848949 8720368
827 6764261 8904053 8778796
828 6621795 8956655 8833807
829 6646097 9013802 8887625
830 6618968 9027866 8910372
831 7073938 9013126 8886568
832 7108949 9003970 8878577
833 7233105 8998638 8873432
834 7169157 8986564 8857583
835 7473504 8945447 8817061
836 7820193 8881177 8751258
837 8349267 8809312 8678975
838 8465678 8725890 8597323
839 8403518 8684266 8554605
840 8538997 8643250 8516328
841 8624448 8642501 8521599
842 8800137 8579092 8459211
843 8476965 8649719 8527919
844 8331414 8678847 8551519
845 8121779 8700893 8572794
846 7971482 8754774 8628226
847 7780294 8796043 8674321
848 7545181 8830147 8705778
849 7498095 8909269 8785756
850 7563145 8952118 8834966
851 7512580 9003281 8877238
852 7570270 9013035 8886976
853 8125340 9012193 8888197
854 8107274 8983058 8850149
855 7865562 8925808 8792862
856 8056877 8856120 8729618
857 8224075 8837992 8713251
858 8631737 8787479 8653266
859 9015979 8705560 8573874
860 9357014 8637595 8514774
861 9300434 8648657 8517284
862 9222044 8618650 8493788
863 8810247 8631918 8510025
864 8607101 8676370 8547683
865 8367125 8699671 8577104
866 8012524 8779117 8653239
867 7872575 8844545 8718751
868 7626187 8869238 8749518
869 7562615 8940135 8814580
870 7726739 8965061 8845000
871 7837556 8994953 8871688
872 7632379 9003016 8875841
873 7926184 9004335 8878371
874 7988174 9011808 8885353
875 8484618 8979436 8850137
876 8698933 8924058 8792638
877 8719842 8881120 8745361
878 8645077 8768935 8638153
879 8835380 8715953 8589544
880 8991521 8700762 8571648
881 8893310 8638975 8511853
882 8977105 8627920 8503737
883 8713822 8650152 8525532
884 8526910 8704677 8583143
885 8323055 8695993 8569650
886 8087688 8750044 8629148
887 8029970 8801274 8679304
888 7904091 8856301 8732385
889 7785291 8971951 8847937
890 7773469 8954779 8830672
891 7781588 8957823 8833550
892 7740790 9012446 8883408
893 7942584 8938722 8810906
894 7992749 8915715 8791678
895 8067861 8896553 8771492
896 8042785 8878530 8750147
897 8165370 8802901 8673866
898 8304781 8764256 8632504
899 8555319 8711100 8584963
900 8797778 8683451 8562250
901 8961856 8653068 8531785
902 9300160 8624181 8502164
903 9194065 8626852 8504004
904 8985955 8640002 8513515
905 8622265 8629223 8503288
906 8135406 8723585 8600300
907 7685292 8776764 8651857
908 7828798 8850670 8728107
909 7810148 8920930 8795973
910 7814704 8935817 8807964
911 8044140 8947806 8824428
912 7860951 8995559 8875030
913 8160839 9027990 8900618
914 8319997 8987394 8858939
915 8517308 8952286 8822491
916 8511400 8900335 8772900
917 8462398 8848871 8722592
918 8540735 8790833 8662346
919 8606589 8742934 8617050
920 9032036 8669747 8537449
921 9114420 8626901 8499018
922 9194532 8582490 8456467
923 8903308 8586639 8459349
924 8589402 8610291 8482964
925 8310378 8637849 8512069
926 8283609 8747062 8618382
927 8186616 8783440 8657731
928 7949166 8867434 8747664
929 7804620 8882900 8758128
930 7690010 8923448 8803709
931 7584454 8938558 8816909
932 7829501 8971329 8848945
933 8163552 8958996 8831963
934 8200524 8909433 8780976
935 8366354 8891830 8761909
936 8487612 8796499 8672452
937 8709946 8763874 8634661
938 8879729 8714961 8588037
939 9069386 8704881 8578175
940 9136777 8600224 8470910
941 9003385 8573118 8441210
942 9186748 8528828 8400741
943 9070938 8567382 8441540
944 8978355 8622444 8502346
945 8727253 8590911 8466621
946 8368888 8655580 8531055
947 8148732 8730714 8605375
948 8059021 8806877 8684994
949 8059526 8838494 8712726
950 8019037 8893892 8761770
951 7784512 8951875 8823819
952 7644671 8959838 8834568
953 7952409 8950082 8821075
954 7938854 8934616 8813636
955 8133412 8863125 8734841
956 8499411 8783345 8654396
957 8716004 8740824 8620303
958 8836695 8672597 8547623
959 9011729 8661575 8539687
960 9171843 8613834 8489129
961 9154857 8595918 8470785
962 9263967 8616338 8492740
963 8885604 8633965 8509028
964 8823347 8672292 8546389
965 8547533 8737237 8620067
966 8497398 8779657 8653597
967 8529168 8802831 8679595
968 8556175 8867856 8744165
969 8456582 8927166 8806408
970 8308164 8937143 8811676
971 8510484 8993340 8862715
972 8448700 8941911 8820045
973 8605604 8936425 8814673
974 8590187 8903931 8773403
975 8304859 8888287 8765305
976 8293435 8844015 8715869
977 8517655 8791095 8662512
978 8977970 8711244 8586315
979 9257024 8657904 8535522
980 9464780 8615856 8485335
981 9135752 8584263 8458233
982 9325040 8568645 8441463
983 9570395 8571950 8449054
984 9453139 8584825 8460680
985 9171475 8615377 8487440
986 8820596 8665389 8536034
987 8630742 8702538 8583997
988 8198124 8778736 8652853
989 8015744 8845897 8723700
990 7814243 8906304 8772121
991 7936977 8910790 8788414
992 7938736 8934469 8805762
993 8296413 8927640 8807698
994 8079433 8914966 8789418
995 8338853 8894112 8770834
996 8716756 8813544 8689081
997 9364469 8764899 8639487
998 9613411 8686903 8557713
999 9655138 8628141 8506266
1000 9710383 8599840 8474777
1001 9603643 8579869 8453159
1002 9787281 8575430 8447957
1003 9452728 8580875 8456238
1004 9499060 8618041 8490471
1005 9290818 8652979 8525570
1006 8911358 8710931 8583740
1007 8572503 8719010 8592294
1008 8511931 8763166 8639337
1009 8313809 8783727 8658627
1010 8095091 8836516 8712337
1011 8172149 8885003 8762011
1012 8197644 8925644 8802068
1013 8439250 8937764 8812629
1014 8378186 8913986 8786787
1015 8725700 8843936 8713930
1016 8966198 8772593 8640855
1017 9194050 8707360 8579073
1018 9446214 8642014 8513931
1019 9686674 8577643 8452367
1020 9826111 8531772 8409297
1021 9717892 8473743 8346580
1022 9845953 8459081 8333475
1023 9559889 8482479 8355484
1024 9454312 8521314 8390229
1025 9212309 8553605 8427589
1026 8886354 8601946 8474926
1027 8537564 8659647 8531235
1028 8537080 8715903 8590599
1029 8564022 8773971 8643962
1030 8475761 8808600 8681342
1031 8355237 8847650 8733474
1032 8375479 8865059 8742498
1033 8655170 8881151 8761051
1034 8717343 8846831 8719245
1035 8973911 8821819 8696364
1036 9158463 8744411 8617780
1037 9492436 8677827 8549954
1038 9504641 8613423 8479552
1039 9816599 8568192 8444409
1040 9827691 8526683 8400225
1041 9615986 8502659 8374716
1042 9804781 8464313 8340066
1043 9493052 8476978 8350162
1044 9478117 8472154 8341858
1045 9319990 8522469 8399246
1046 8993195 8583221 8458179
1047 8920710 8657427 8535804
1048 8731037 8734682 8607458
1049 8264526 8775793 8652334
1050 8177414 8830756 8710166
1051 8172382 8879013 8760483
1052 8252785 8918787 8790983
1053 8475345 8929397 8801489
1054 8498258 8898726 8766732
1055 8816514 8874915 8744588
1056 9010589 8825156 8696903
1057 9334573 8734233 8612875
1058 9450900 8655797 8527706
1059 9522802 8586009 8455942
1060 9613772 8564675 8436561
1061 9626472 8525928 8395418
1062 9763861 8520094 8391121
1063 9255136 8541806 8416609
1064 8887021 8582980 8457716
1065 8693175 8635045 8504138
1066 8573101 8704072 8581480
1067 8343411 8743449 8622361
1068 8202645 8804942 8680671
1069 8273612 8859152 8731017
1070 8067692 8922986 8795995
1071 7883686 8921230 8799310
1072 7712218 8918886 8793543
1073 7931603 8939295 8816187
1074 8216810 8892814 8771979
1075 8755583 8872893 8743581
1076 9040264 8821430 8689818
1077 9215669 8740061 8607339
1078 9423818 8652485 8528387
1079 9270121 8575074 8446318
1080 9237208 8542184 8410640
1081 8994259 8552006 8421717
1082 9255534 8562156 8435899
1083 9210127 8558596 8436207
1084 9005375 8578637 8454752
1085 8592504 8615189 8492255
1086 8466018 8692862 8565948
1087 8297952 8742547 8615850
1088 8294364 8761503 8635788
1089 8159927 8829039 8711834
1090 8052347 8862672 8738423
1091 7942228 8885650 8760027
1092 7648255 8922890 8796923
1093 7626630 8948564 8820799
1094 7642543 8917973 8790775
1095 7990936 8862793 8733718
1096 8431384 8794160 8662695
1097 8711044 8736449 8607308
1098 8753805 8672022 8545413
1099 8742247 8635234 8504059
1100 8630434 8598092 8471306
1101 8665218 8610448 8484758
1102 8868132 8571441 8448709
1103 8523130 8555503 8424103
1104 8413751 8570934 8446874
1105 8316332 8622452 8497048
1106 8346814 8671095 8547377
1107 8375920 8724063 8596225
1108 8158023 8775730 8655638
1109 7939583 8829686 8701373
1110 7673344 8896331 8769981
1111 7597035 8947223 8821264
1112 7357304 8971784 8847957
1113 7734076 8977285 8852622
1114 7859983 8951775 8826587
1115 8062295 8901251 8770595
1116 8366169 8822865 8691342
1117 8734343 8763715 8629024
1118 8480612 8728413 8594014
1119 8539021 8646547 8522932
1120 8809019 8586424 8458465
1121 8963855 8562321 8434475
1122 9020781 8542130 8416023
1123 8769694 8546183 8411814
1124 8762196 8554512 8426083
1125 8477520 8578948 8453147
1126 8076336 8655977 8529280
1127 7754809 8721610 8592562
1128 7726254 8776492 8654861
1129 7470910 8844574 8717596
1130 7423331 8901338 8774141
1131 7585295 8912693 8787283
1132 7677443 8914997 8788655
1133 7927604 8924611 8797938
1134 7857773 8903499 8783933
1135 7988621 8874611 8748293
1136 8203547 8827949 8698858
1137 8389272 8753243 8623222
1138 8560460 8712878 8577991
1139 8831055 8630383 8503093
1140 8982568 8582703 8452867
1141 8908695 8552710 8426923
1142 8853736 8546721 8423386
1143 8464673 8546465 8422032
1144 8347667 8590493 8464412
1145 8174461 8612454 8488496
1146 8114126 8682369 8558613
1147 8073324 8733790 8610768
1148 7992099 8787250 8665289
1149 7742121 8825118 8703502
1150 7510568 8917365 8791283
1151 7691364 8959649 8834267
1152 7531979 8967079 8840042
1153 7856139 8962213 8839430
1154 7757294 8924209 8802531
1155 8078466 8888117 8759221
1156 8543325 8814775 8686626
1157 8618163 8755101 8629485
1158 8864236 8685138 8556113
1159 9152616 8617212 8488757
1160 9286663 8570874 8438360
1161 9367484 8522207 8396331
1162 9130689 8517593 8391400
1163 8763234 8549839 8426633
1164 8557662 8587360 8465769
1165 8241745 8639977 8510484
1166 7819265 8675545 8557127
1167 7892876 8706460 8582114
1168 7867731 8770617 8642835
1169 7523636 8834643 8712131
1170 7517253 8877980 8753055
1171 7732428 8899563 8771355
1172 7755362 8905815 8780227
1173 8087224 8889720 8767787
1174 8183371 8896333 8766869
1175 8078061 8898305 8779191
1176 8061676 8814432 8693664
1177 8450278 8769436 8640535
1178 8750838 8707979 8577963
1179 8977183 8619458 8484740
1180 8976218 8590655 8468018
1181 8851756 8545555 8420370
1182 8944549 8530089 8404949
1183 8740363 8521066 8393014
1184 8544908 8554637 8434140
1185 8281721 8603169 8479089
1186 8295635 8671735 8546770
1187 7976829 8735059 8614288
1188 7890018 8797747 8672047
1189 7919826 8839346 8715966
1190 7940924 8882820 8756879
1191 7730724 8887488 8755907
1192 7398889 8918184 8791563
1193 7931218 8926448 8805756
1194 8023485 8918246 8784629
1195 8069388 8858534 8735860
1196 8171878 8782713 8655205
1197 8396013 8699882 8576490
1198 8777585 8629104 8498008
1199 9008827 8567083 8441057
1200 9168113 8558227 8428861
1201 8912110 8567783 8432022
1202 8993715 8544527 8413485
1203 8955776 8588765 8461308
1204 8662463 8599279 8472190
1205 8275539 8606223 8480909
1206 7859001 8661288 8535977
1207 7934570 8739638 8608219
1208 7723956 8773969 8650645
1209 7708051 8823054 8700919
1210 7611268 8883915 8762442
1211 7777693 8915565 8790127
1212 7811795 8961427 8833088
1213 7965079 8987360 8860432
1214 7941130 8962404 8834545
1215 8174027 8927049 8794798
1216 8365551 8838074 8707937
1217 8732101 8786373 8655698
1218 8880795 8719169 8593281
1219 8873085 8688897 8559128
1220 8778685 8627916 8499484
1221 8934609 8610107 8477706
1222 9009044 8603111 8477940
1223 8668936 8579903 8448129
1224 8565626 8592502 8465535
1225 8201789 8608018 8486328
1226 7912963 8684832 8563332
1227 7815046 8748572 8626188
1228 7780566 8827137 8702923
1229 7974167 8921534 8790174
1230 7787694 8918397 8792015
1231 7743239 8934840 8807869
1232 7720764 8948434 8825031
1233 7867322 8938020 8811640
1234 7905443 8915217 8787878
1235 8171690 8873471 8747592
1236 8610354 8783666 8652780
1237 8748946 8721042 8593585
1238 8658070 8695501 8565852
1239 8592969 8674519 8539250
1240 8549587 8665783 8532853
1241 8812365 8599261 8460841
1242 8857401 8544040 8415849
1243 8716598 8556929 8427043
1244 8759435 8562064 8437145
1245 8435643 8596332 8468757
1246 8359048 8674988 8557475
1247 8103743 8722019 8600119
1248 7661742 8783162 8663512
1249 7357865 8828343 8699578
1250 7329240 8863961 8739998
1251 7398349 8919738 8792353
1252 7357102 8966009 8840816
1253 7727432 8953955 8822123
1254 7843273 8929295 8800700
1255 8002821 8879731 8756777
1256 8451321 8808470 8679311
1257 8596476 8759943 8631839
1258 8563165 8697334 8570794
1259 8961851 8658498 8528522
1260 9174745 8603945 8479371
1261 9022932 8591974 8470758
1262 8948252 8592764 8462292
1263 8732541 8616080 8487148
1264 8669174 8628549 8501322
1265 8337479 8645803 8523795
1266 8357022 8735525 8616026
1267 8053021 8772695 8648123
1268 7820746 8815137 8692935
1269 7646546 8886783 8763125
1270 7799543 8944516 8818076
1271 7846132 8954142 8834022
1272 7677925 8962629 8841065
1273 7969071 8914264 8789028
1274 8131591 8893623 8769405
1275 7892038 8865403 8735918
1276 7693930 8829635 8702771
1277 8202731 8789271 8659602
1278 8751001 8721325 8593203
1279 9214387 8662972 8531135
1280 9422288 8595119 8470474
1281 9399496 8547239 8420528
1282 9372825 8529140 8400497
1283 8994778 8522549 8396461
1284 8904617 8553868 8435444
1285 8467949 8584038 8459376
1286 7990547 8652117 8532081
1287 7691921 8751797 8628611
1288 7810099 8813032 8690005
1289 7713274 8884745 8755392
1290 7628213 8939492 8811413
1291 7668557 8958923 8843199
1292 7471830 8990304 8856064
1293 7440664 8962412 8832484
1294 7438318 8949322 8825490
1295 7623404 8914457 8784278
1296 8080718 8834174 8706284
1297 8560980 8792914 8656502
1298 9092916 8714872 8584166
1299 9404278 8633142 8502784
1300 9330044 8577641 8455120
1301 9085148 8567081 8441525
1302 8894638 8565140 8437345
1303 8712388 8604862 8476921
1304 8501037 8594070 8462609
1305 8199510 8595927 8468404
1306 8411145 8666616 8538993
1307 8376827 8726121 8599327
1308 8206559 8797117 8672669
1309 7680920 8854774 8728146
1310 7013683 8893589 8759543
1311 7067487 8903808 8782732
1312 7363000 8942904 8816664
1313 7550590 8986770 8857516
1314 7891418 8971211 8839851
1315 8094979 8927020 8797066
1316 8184521 8851706 8727871
1317 8392272 8803987 8674219
1318 8363625 8738762 8612999
1319 8851596 8664314 8530048
1320 9044453 8594995 8469317
1321 8674372 8577914 8450713
1322 8562717 8570866 8438135
1323 8620063 8578159 8446174
1324 8616840 8599652 8471842
1325 8362657 8616605 8491611
1326 8360301 8675414 8547674
1327 8306965 8743254 8614878
1328 8023424 8793779 8666589
1329 7765095 8852651 8726703
1330 7561101 8897949 8770148
1331 7677263 8940519 8812693
1332 7603902 8990563 8861834
1333 7878016 8965160 8837189
1334 8047309 8917575 8794394
1335 8302731 8852372 8725303
1336 8442545 8790557 8660474
1337 8334398 8724173 8598632
1338 8668399 8658445 8526696
1339 8848933 8620338 8493779
1340 8764023 8593182 8467395
1341 8838128 8567762 8440984
1342 8974899 8552507 8426465
1343 8667369 8569242 8442570
1344 8470660 8596329 8468565
1345 8240343 8692003 8570591
1346 8144057 8749618 8625588
1347 7950221 8780660 8655269
1348 7835477 8822959 8705104
1349 7637294 8867968 8744862
1350 7577758 8941138 8822514
1351 7553470 8971340 8845076
1352 7454734 8979396 8851409
1353 7918105 8957589 8829179
1354 8067658 8910257 8781702
1355 8305897 8885810 8751396
1356 8258912 8797749 8668485
1357 8490607 8729371 8600359
1358 8771636 8668268 8542421
1359 8977169 8582077 8456498
1360 8849689 8522664 8390776
1361 8798351 8525390 8403378
1362 8907890 8517536 8389210
1363 8774650 8560152 8439002
1364 8701372 8599999 8472323
1365 8556222 8651264 8529402
1366 8476172 8712145 8591568
1367 8077159 8742923 8611509
1368 7810506 8776433 8645954
1369 7527851 8830109 8704785
1370 7305686 8865993 8748179
1371 7164329 8921708 8795905
1372 7389723 8963088 8836215
1373 7835748 8937992 8817254
1374 7795242 8911196 8785700
1375 7888374 8896579 8769264
1376 8253289 8837710 8712321
1377 8335443 8774437 8641855
1378 8573261 8712514 8577227
1379 8509992 8676349 8543452
1380 8468675 8607116 8480091
1381 8742713 8609553 8484868
1382 9024103 8588199 8454365
1383 8877600 8570293 8443486
1384 8650160 8605960 8477166
1385 8376880 8641226 8517644
1386 8396298 8691933 8565962
1387 8237780 8741753 8614315
1388 8045456 8806954 8682628
1389 7881639 8850263 8726948
1390 7719485 8883650 8760748
1391 7861710 8923278 8794896
1392 8034674 8941825 8816060
1393 7939889 8957831 8833723
1394 7813453 8947085 8814242
1395 8101846 8900910 8772546
1396 8065874 8840685 8714336
1397 8500828 8791867 8661684
1398 8633305 8744812 8615069
1399 8879863 8669934 8539374
1400 8894467 8633163 8505818
1401 9120590 8609046 8480154
1402 9066419 8607916 8479929
1403 8655189 8605799 8477616
1404 8521457 8619008 8498336
1405 8179605 8648066 8522879
1406 8118212 8710961 8585642
1407 7887083 8767031 8643588
1408 7783316 8816159 8693976
1409 7626666 8877471 8752777
1410 7547635 8913788 8789029
1411 7659178 8942382 8818212
1412 7691955 8929351 8797446
1413 7814288 8943496 8819115
1414 7852699 8959058 8834029
1415 8252425 8906943 8778600
1416 8302318 8852044 8725268
1417 8670917 8772564 8639128
1418 8863988 8667835 8539711
1419 8874506 8632767 8502198
1420 9143905 8574049 8443911
1421 9218914 8577668 8448084
1422 9070923 8528457 8396797
1423 8804347 8542305 8416166
1424 8875488 8557171 8432089
1425 8749073 8624163 8503173
1426 8487318 8693609 8563487
1427 8092639 8732299 8618726
1428 7948909 8784156 8661813
1429 7864506 8851279 8726531
1430 7853092 8883670 8764983
1431 7718248 8928761 8804867
1432 7732430 8942572 8815816
1433 8051205 8922471 8793878
1434 8132500 8912102 8776332
1435 8290828 8846041 8718591
1436 8390379 8787268 8658190
1437 8644323 8733875 8602717
1438 8862406 8674644 8544185
1439 8964911 8598745 8469980
1440 9008191 8555980 8428541
1441 9256687 8551263 8416542
1442 9313879 8517061 8388314
1443 8867434 8537364 8408507
1444 8768943 8574757 8451658
1445 8372152 8600852 8472014
1446 8232401 8672155 8545752
1447 8040660 8707128 8579008
1448 7836842 8771019 8646570
1449 7618397 8852984 8729150
1450 7365507 8896417 8774023
1451 7216340 8970005 8844441
1452 7304894 8972610 8847646
1453 7774916 8964389 8837160
1454 7910118 8918435 8789402
1455 8235932 8880145 8750940
1456 8396929 8815177 8691005
1457 8728769 8745468 8612598
1458 8879552 8668629 8535820
1459 9097615 8603444 8475701
1460 9000940 8542772 8422460
1461 8828291 8535895 8407788
1462 8737672 8529590 8406923
1463 8699221 8563595 8438239
1464 8631465 8621292 8493727
1465 8160822 8655089 8530533
1466 8022929 8715980 8588116
1467 8016592 8761591 8648140
1468 8040432 8824621 8701445
1469 7752921 8876063 8749157
1470 7461163 8916420 8791487
1471 7492464 8936678 8816416
1472 7804117 8909229 8781220
1473 7970563 8879624 8755644
1474 8162113 8876327 8748228
1475 8386844 8837649 8704432
1476 8311900 8779759 8649813
1477 8377188 8762405 8631303
1478 8553251 8699214 8571434
1479 8941994 8647429 8521424
1480 9078346 8591363 8463249
1481 8958835 8531174 8400928
1482 8997375 8488753 8361357
1483 8565228 8520042 8395425
1484 8296583 8553917 8434162
1485 7942632 8574807 8453281
1486 8096141 8652530 8531490
1487 7942085 8688609 8563209
1488 7622626 8801338 8688793
1489 7552023 8846007 8721246
1490 7543841 8896287 8770486
1491 7577335 8934866 8812632
1492 7671094 8945036 8820690
1493 7915464 8936931 8811043
1494 8055193 8898936 8768916
1495 8415544 8865865 8737171
1496 8662817 8828344 8701974
1497 8825240 8771245 8640680
1498 9113694 8712623 8583772
1499 9004623 8651322 8525415
1500 8792148 8621808 8488344
1501 8731514 8613018 8480552
1502 8732642 8593027 8465868
1503 8631141 8608564 8478206
1504 8629108 8634598 8507314
1505 8357426 8650220 8526331
1506 8150224 8713632 8584915
1507 7817705 8758628 8630662
1508 7550374 8818571 8689692
1509 7378254 8872441 8746685
1510 7191032 8920811 8795277
1511 7452191 8973701 8847864
1512 7764103 8989079 8867773
1513 8071606 8957291 8827665
1514 7952495 8940612 8813836
1515 8362348 8932829 8805875
1516 8485228 8868004 8744484
1517 8676702 8804980 8675681
1518 8649825 8733172 8605362
1519 8827635 8666484 8540376
1520 8826267 8604321 8473050
1521 8958362 8582641 8457344
1522 9060218 8583574 8455601
1523 8611884 8607117 8483865
1524 8467624 8645998 8515833
1525 8254624 8676726 8553245
1526 8111307 8747177 8620496
1527 7713942 8792462 8673883
1528 7457390 8875861 8749056
1529 7365788 8944209 8818474
1530 7515905 8971974 8853269
1531 7619003 8979812 8855609
1532 7674900 8980615 8852541
1533 7751860 8956416 8829581
1534 7838504 8947071 8816942
1535 8361987 8920092 8797147
1536 8664790 8862895 8739897
1537 8903801 8797096 8665894
1538 8958749 8730941 8600423
1539 8774392 8691799 8563290
1540 8907934 8670191 8540298
1541 8998432 8649177 8524828
1542 9044370 8639073 8505921
1543 8939949 8645317 8517029
1544 8813216 8671603 8551509
1545 8605503 8688632 8561590
1546 8551720 8743796 8619436
1547 8262596 8802370 8676607
1548 8049575 8865184 8743119
1549 7739491 8909860 8781965
1550 8008603 8943466 8818996
1551 8726103 8945771 8820554
1552 9078370 8946822 8822066
1553 9257296 8901890 8770500
1554 9485444 8859021 8732546
1555 9698229 8815238 8690409
1556 9909455 8771165 8641407
1557 10288376 8708268 8579646
1558 10597717 8644950 8516930
1559 10643971 8561315 8435514
1560 10778690 8515734 8388764
1561 10927520 8501439 8369357
1562 11090355 8472098 8341663
1563 10482894 8496816 8371797
1564 10163897 8547646 8425948
1565 9995181 8610758 8482610
1566 9686383 8664202 8535126
1567 9124554 8711749 8585253
1568 8754223 8756807 8636919
1569 8776879 8808861 8689125
1570 8762790 8859167 8733561
1571 8475918 8884667 8760178
1572 8130605 8914449 8790777
1573 8014784 8908245 8780362
1574 7857225 8924917 8801585
1575 7491222 8895562 8766993
1576 7556694 8835393 8708869
1577 7771659 8804486 8678789
1578 7559240 8761388 8629764
1579 7460579 8722956 8594929
1580 7792339 8704623 8579396
1581 8074538 8694484 8562644
1582 7679544 8678172 8548578
1583 7230426 8704592 8570368
1584 6963380 8730684 8604892
1585 6459778 8781096 8658982
1586 6256970 8853647 8724703
1587 5916437 8935046 8809988
1588 5964612 8996297 8870824
1589 6079475 9030168 8907676
1590 6408409 9065584 8942613
1591 6415968 9060024 8930939
1592 6548922 9067073 8940336
1593 6644601 9058480 8930397
1594 6641343 9022624 8896031
1595 7005064 8979224 8854567
1596 7241074 8892216 8759593
1597 7523783 8853786 8728468
1598 7757167 8808230 8679939
1599 8164341 8749349 8618553
1600 8331040 8718230 8593605
1601 8405201 8708041 8580770
1602 8335284 8698971 8573649
1603 8143895 8710942 8587086
1604 8109186 8717799 8588785
1605 7908612 8730679 8600376
1606 7990811 8758569 8633080
1607 7601252 8800111 8678626
1608 7476057 8883398 8768360
1609 7371995 8914605 8790459
1610 7161144 8985054 8857880
1611 7364473 9030296 8902847
1612 7512213 9027886 8908402
1613 7640449 9015272 8886607
1614 7886874 9023989 8901789
1615 8063022 8982319 8851954
1616 8095326 8885575 8758340
1617 8302637 8840142 8704299
1618 8338031 8772917 8642881
1619 8732229 8722885 8590628
1620 9021246 8663538 8536910
1621 9144013 8622844 8494432
1622 9156037 8596553 8475718
1623 9075533 8582285 8460025
1624 8551717 8590669 8468332
1625 8072581 8662006 8536288
1626 8010510 8752055 8629016
1627 7831771 8794412 8674965
1628 7833208 8878799 8761266
1629 7738385 8931166 8812178
1630 7567789 8989060 8862398
1631 7653131 9002301 8875812
1632 7772522 9020808 8889797
1633 7966626 8976506 8852184
1634 8077029 8980772 8852506
1635 7970909 8927479 8793861
1636 7915694 8857217 8730747
1637 8451090 8797662 8665004
1638 8489928 8745360 8623980
1639 8769277 8688345 8558359
1640 9145245 8634176 8508860
1641 9382833 8594272 8460044
1642 9254121 8596472 8472256
1643 9009740 8646757 8523022
1644 8632135 8688499 8563772
1645 8040307 8739725 8614036
1646 8054519 8801525 8680690
1647 8309145 8852831 8731750
1648 8230730 8913361 8786365
1649 7700397 8940023 8816204
1650 7880955 8964494 8843963
1651 7730597 9009290 8883327
1652 7460901 9004696 8880560
1653 7650100 8992605 8865089
1654 8076591 8950468 8820065
1655 8513570 8906094 8780370
1656 8429959 8868336 8741488
1657 8689243 8814996 8686834
1658 8858746 8779910 8645888
1659 9031483 8724421 8592213
1660 8932652 8645483 8520903
1661 8962133 8625267 8496601
1662 8859539 8657252 8537433
1663 8725340 8689542 8562513
1664 8658602 8712250 8583142
1665 8427898 8753839 8639067
1666 8456155 8796875 8675037
1667 8275717 8831880 8710240
1668 7993419 8892119 8766826
1669 7620012 8914052 8791799
1670 7576206 8966899 8841772
1671 7702897 8989744 8861583
1672 7962740 9039901 8910184
1673 8292499 9010906 8887859
1674 8350512 8952089 8823230
1675 8419321 8898585 8767461
1676 8471705 8847384 8718669
1677 8769825 8779405 8649580
1678 8945410 8768331 8636334
1679 9168656 8716276 8587741
1680 9314718 8635208 8504216
1681 9390773 8579973 8449689
1682 9334211 8573061 8444025
1683 9053020 8621768 8496905
1684 9015976 8652171 8525257
1685 8560357 8679276 8557974
1686 8381503 8734343 8608387
1687 8179721 8785559 8657676
1688 7972454 8848626 8716522
1689 7733767 8895348 8772984
1690 7721078 8948956 8827402
1691 7789532 8969681 8843591
1692 7832401 8983643 8864100
1693 7989956 8990886 8869056
1694 8209911 8943416 8818799
1695 8784259 8881778 8758698
1696 8998797 8811242 8682797
1697 9141270 8733694 8609292
1698 9106279 8680549 8551905
1699 9204064 8619188 8488962
1700 9105847 8578419 8450497
1701 8883998 8579524 8451156
1702 8928490 8608467 8478304
1703 8794005 8612273 8485771
1704 8751434 8633621 8508401
1705 8445277 8668214 8540826
1706 8588450 8729049 8608738
1707 8422279 8766400 8645015
1708 8201772 8819922 8693582
1709 7885869 8876432 8753358
1710 7651541 8906814 8782750
1711 7622314 8960908 8836769
1712 7658412 8979598 8850665
1713 7949720 8980510 8858729
1714 8139621 8975200 8849434
1715 8457660 8952799 8820708
1716 8708287 8840696 8714371
1717 8656371 8773544 8643753
1718 9042620 8680199 8554591
1719 9386693 8611885 8483979
1720 9276479 8564407 8436912
1721 9247477 8557581 8434304
1722 9554172 8580349 8452852
1723 9371055 8601376 8466744
1724 8978619 8623937 8495778
1725 8459651 8662187 8541868
1726 8559973 8733530 8615821
1727 8316714 8800430 8677585
1728 8096874 8845099 8723269
1729 8017833 8887889 8763431
1730 7862212 8930510 8804357
1731 7953715 8960006 8835441
1732 7895738 8950883 8826702
1733 7982212 8946464 8822713
1734 8372586 8930709 8803039
1735 8763493 8900708 8774324
1736 8902736 8813336 8687965
1737 9068007 8759024 8627191
1738 9276069 8691251 8558088
1739 9324638 8623175 8487035
1740 9324627 8580420 8456968
1741 9424003 8569815 8446789
1742 9143086 8562628 8435330
1743 9009801 8599130 8471121
1744 9070031 8591643 8471517
1745 8656334 8657185 8536372
1746 8546709 8723007 8601976
1747 8526764 8762998 8640508
1748 8527379 8822322 8704644
1749 8381034 8856523 8735013
1750 8202662 8910322 8791145
1751 8048798 8964096 8841761
1752 8030960 8977694 8860027
1753 8238489 8963049 8836147
1754 8600686 8928423 8799626
1755 8840573 8870551 8742096
1756 8965209 8794214 8663212
1757 9331841 8725802 8601333
1758 9593701 8659754 8532684
1759 9759255 8598869 8475262
1760 9659465 8554967 8424966
1761 9619978 8534232 8406967
1762 9381509 8506907 8378098
1763 9304705 8551066 8421437
1764 9151453 8586156 8461592
1765 8993813 8663796 8539549
1766 8938152 8753281 8632570
1767 8731471 8794333 8666298
1768 8377174 8843231 8716553
1769 8215516 8894052 8772499
1770 8528609 8928893 8817057
1771 8575982 8952899 8831270
1772 8443566 8953790 8831324
1773 8652287 8950881 8829191
1774 8898800 8919416 8794104
1775 8982505 8879807 8749437
1776 9039649 8808905 8682308
1777 9386930 8756404 8625285
1778 9438764 8720093 8593945
1779 9445536 8645614 8516920
1780 9555805 8596043 8469112
1781 9578928 8565303 8437626
1782 10000418 8528532 8402736
1783 9857025 8545919 8422781
1784 9670589 8574016 8449046
1785 8969794 8619787 8501094
1786 9003451 8691611 8565356
1787 9084122 8721415 8595803
1788 9166071 8764163 8641798
1789 8961598 8799214 8676989
1790 8592809 8844746 8717744
1791 8436578 8892092 8772422
1792 8384168 8908097 8785622
1793 8694864 8882660 8752956
1794 8999738 8847098 8722094
1795 9434262 8821412 8698134
1796 9505582 8770818 8649539
1797 9653614 8705461 8576496
1798 9606733 8633743 8506247
1799 9668920 8580770 8455516
1800 9630764 8543225 8414929
1801 10039315 8537765 8411665
1802 9984800 8510772 8383391
1803 9759098 8503574 8376475
1804 9722941 8522463 8399051
1805 9561899 8542952 8418930
1806 9350405 8601642 8477574
1807 9018207 8663983 8534006
1808 8838684 8723497 8603095
1809 8882483 8766333 8641800
1810 8970816 8818788 8691323
1811 8792983 8836857 8711397
1812 8581092 8851102 8729355
1813 8464076 8856205 8732776
1814 8566298 8893375 8767287
1815 8640563 8882174 8760475
1816 8752408 8815448 8687181
1817 9270659 8727913 8600241
1818 9302315 8700835 8564882
1819 9570344 8604267 8484573
1820 9834191 8582658 8455126
1821 9793065 8527638 8397540
1822 9545785 8508109 8378512
1823 9487201 8526691 8404032
1824 9109650 8558364 8432434
1825 8786598 8607426 8485488
1826 8568590 8672224 8548196
1827 8407125 8736183 8610824
1828 8457880 8799662 8676778
1829 8305572 8851344 8725920
1830 8319671 8889500 8765492
1831 8214322 8913450 8785850
1832 8069868 8925218 8801119
1833 8188164 8919167 8792417
1834 8329458 8871992 8742961
1835 9011887 8791647 8664276
1836 9156951 8726852 8602788
1837 9045730 8705811 8573759
1838 9154882 8673390 8540946
1839 9475635 8611745 8483828
1840 9367401 8562038 8429737
1841 9341801 8562329 8433448
1842 9221686 8566386 8439725
1843 9104145 8579991 8454896
1844 8830102 8603027 8471371
1845 8596232 8642138 8523769
1846 8452594 8690282 8566275
1847 8203789 8756234 8633819
1848 8112510 8825703 8699566
1849 7987393 8892400 8767122
1850 8372540 8936910 8816713
1851 8424054 8971584 8852554
1852 8045410 8969539 8844987
1853 8115887 8953545 8824528
1854 8275928 8955391 8831895
1855 8576582 8898095 8766872
1856 8783862 8815231 8688868
1857 9175278 8748703 8620172
1858 9237873 8674449 8547727
1859 9099699 8639584 8509989
1860 8881818 8601504 8478013
1861 9057114 8576753 8444591
1862 9200581 8546163 8418955
1863 8812461 8550699 8425674
1864 8681770 8600001 8476464
1865 8628091 8658998 8538201
1866 8721344 8756213 8638452
1867 8263094 8808299 8682971
1868 8129801 8855285 8733531
1869 7820350 8892365 8765379
1870 7856840 8929526 8808414
1871 7714070 8922954 8799362
1872 8079209 8928810 8804590
1873 8101751 8912425 8786853
1874 8338606 8894484 8768464
1875 8330702 8864878 8734365
1876 8503661 8768934 8640207
1877 8734713 8730502 8602348
1878 8778117 8655700 8525372
1879 8892866 8573522 8442726
1880 9074172 8535519 8411395
1881 9223046 8516608 8390504
1882 8999812 8522531 8396141
1883 8826728 8531210 8405834
1884 8503733 8568559 8441933
1885 8330845 8630977 8509671
1886 8139214 8695228 8567552
1887 7608379 8760980 8633970
1888 7686625 8827840 8708519
1889 7546857 8878746 8754430
1890 7387287 8915181 8792631
1891 7371745 8945233 8823431
1892 7919023 8950776 8824047
1893 8412132 8922557 8789395
1894 8567288 8832468 8706888
1895 8512680 8796038 8667474
1896 8508253 8742569 8614796
1897 8484507 8699324 8571484
1898 8407608 8669494 8540602
1899 8649729 8597601 8471711
1900 8817900 8563514 8435447
1901 9132309 8549336 8423896
1902 9361602 8534970 8406178
1903 9045244 8563765 8442320
1904 8628504 8580444 8456292
1905 8169529 8632398 8511982
1906 8122856 8681157 8560099
1907 7945375 8752029 8629171
1908 7955542 8821544 8692051
1909 7726571 8851058 8723008
1910 7625833 8906528 8783520
1911 7488716 8941959 8817523
1912 7853165 8925349 8806615
1913 8114938 8930224 8808473
1914 8253057 8910703 8782869
1915 8258228 8883244 8758169
1916 8334999 8844971 8725418
1917 8499349 8767763 8634972
1918 8595843 8731346 8604658
1919 8915455 8664434 8542065
1920 8885741 8630514 8503686
1921 9157071 8583348 8453846
1922 9132417 8556186 8428934
1923 8723578 8557345 8431487
1924 8283074 8583665 8456896
1925 8237012 8621642 8500920
1926 8180229 8702867 8577590
1927 7954860 8747984 8618896
1928 7813781 8807035 8685000
1929 7641527 8844019 8717795
1930 7737107 8863679 8736792
1931 7649895 8895301 8775281
1932 7717793 8894798 8768078
1933 8098323 8869863 8746512
1934 8117087 8832740 8708290
1935 8204544 8795379 8665749
1936 8288608 8731465 8611316
1937 8481715 8695913 8569424
1938 8740951 8675247 8543717
1939 9151379 8613394 8482936
1940 9137619 8575037 8443799
1941 9260442 8532452 8405977
1942 9178606 8506423 8388812
1943 8997500 8538291 8407385
1944 8758604 8552288 8429941
1945 8323415 8592072 8470618
1946 8330442 8665494 8539944
1947 8119216 8727007 8606418
1948 8008314 8797940 8674417
1949 7738753 8861012 8738722
1950 7730488 8922732 8799022
1951 7680811 8938838 8809435
1952 7745210 8939964 8815346
1953 8261849 8918856 8787757
1954 8706728 8885430 8758498
1955 8836816 8842309 8712032
1956 8464961 8787341 8661355
1957 8481937 8770853 8650197
1958 8589018 8715650 8586625
1959 8906352 8647465 8520278
1960 8932356 8591877 8460829
1961 9212508 8555558 8425866
1962 9381174 8542237 8415369
1963 9184791 8569653 8446481
1964 8873179 8629638 8504832
1965 8300483 8718817 8592853
1966 7971412 8771239 8641935
1967 7812230 8796105 8670571
1968 7881807 8829051 8699740
1969 8021876 8865189 8742053
1970 7727401 8879526 8748946
1971 7711471 8902564 8774067
1972 7907798 8901563 8773289
1973 8114436 8897801 8771233
1974 8122993 8878790 8749180
1975 8477605 8823530 8695404
1976 8873693 8762013 8637077
1977 8970631 8701112 8576489
1978 8906597 8633344 8505917
1979 8772904 8596927 8473611
1980 8853420 8589588 8452932
1981 8694084 8570949 8439822
1982 8481806 8552807 8429162
1983 8857602 8560460 8433314
1984 8852488 8559508 8436598
1985 8655241 8615398 8488224
1986 8343189 8654486 8528907
1987 8080950 8728086 8602535
1988 7627840 8801639 8674256
1989 7405579 8852469 8729624
1990 7648124 8916611 8796334
1991 7747176 8940580 8815792
1992 7756831 8953431 8824513
1993 7804680 8941147 8817026
1994 8083683 8902647 8776651
1995 8484074 8845792 8713109
1996 8622457 8780515 8651181
1997 8863785 8720195 8590970
1998 8823696 8658497 8530603
1999 9111053 8587609 8464379
2000 9162812 8563501 8438379
2001 9037819 8578281 8451506
2002 9009215 8573945 8446604
2003 8982688 8567659 8441740
2004 8853410 8595558 8469437
2005 8537953 8635866 8510073
2006 8435751 8712489 8593624
2007 8240830 8757242 8635012
2008 7907799 8825798 8702007
2009 7719192 8868319 8743812
2010 7685910 8911153 8781133
2011 7671602 8932293 8813946
2012 7827787 8937077 8806877
2013 7878978 8897797 8766684
2014 8079913 8898051 8774219
2015 8261742 8882904 8756758
2016 8482158 8827745 8700179
2017 8839740 8747058 8621267
2018 9236907 8695336 8564823
2019 9412269 8630579 8499415
2020 9189873 8580123 8451984
2021 9062534 8581368 8452997
2022 9103395 8569769 8445985
2023 9083159 8583596 8460690
2024 8800569 8611380 8484454
2025 8661544 8640000 8520138
2026 8320893 8701653 8579891
2027 8208662 8745812 8620038
2028 8206683 8812302 8690844
2029 8027610 8861163 8740121
2030 7670098 8929430 8807382
2031 7347005 8978381 8853529
2032 7517485 8982788 8859124
2033 7617369 8970325 8841163
2034 7878218 8945823 8821499
2035 8404263 8908752 8781309
2036 8830675 8836873 8708256
2037 8924626 8773895 8646115
2038 8948258 8709034 8584895
2039 8853650 8619455 8490242
2040 8688723 8590362 8464482
2041 8633964 8568004 8442825
2042 8715141 8562685 8442688
2043 8921026 8580626 8454047
2044 8725384 8578091 8453389
2045 8592826 8614476 8493605
2046 8736461 8678505 8554777
2047 8499423 8733430 8611379
2048 8101175 8821149 8695784
2049 7897205 8895733 8763493
2050 7839537 8918946 8796352
2051 7699794 8956852 8833920
2052 8010216 8956838 8833709
2053 8233828 8911591 8779182
2054 8294704 8869613 8741299
2055 8333283 8819113 8686653
2056 8360402 8772907 8645584
2057 8738854 8723801 8597055
2058 8762886 8679884 8545384
2059 9008647 8646346 8518848
2060 9212111 8587833 8464139
2061 9397552 8563909 8438122
2062 9280189 8544447 8419806
2063 9007696 8549034 8424236
2064 8572807 8575304 8457741
2065 8354399 8649073 8524523
2066 8054990 8713769 8594534
2067 7809708 8748201 8625648
2068 7700430 8810198 8685441
2069 7446701 8841120 8717129
2070 7596284 8877259 8756757
2071 7593871 8918361 8793572
2072 7634946 8934499 8811370
2073 7853044 8925376 8797810
2074 8192765 8884085 8761111
2075 8444825 8828434 8697717
2076 8517202 8766155 8635733
2077 8651320 8721116 8592930
2078 8868611 8667495 8541182
2079 9197745 8597311 8469448
2080 8969106 8549051 8423359
2081 8968017 8533791 8406444
2082 8771726 8540975 8418025
2083 8682700 8595381 8466028
2084 8744772 8598480 8474720
2085 8689397 8606631 8477870
2086 8521924 8652232 8525910
2087 8033096 8705843 8582712
2088 7558549 8769256 8657857
2089 7628682 8842102 8720392
2090 8025596 8912253 8785311
2091 7980631 8926780 8796187
2092 8026478 8938996 8824434
2093 8088776 8921948 8789700
2094 8378215 8885988 8762365
2095 8548995 8845229 8715203
2096 8494757 8768447 8640844
2097 8733212 8717298 8595398
2098 8838225 8673718 8545956
2099 9176958 8616492 8486538
2100 9284892 8555969 8424190
2101 9227021 8542969 8414318
2102 8990101 8549232 8422290
2103 8905751 8545906 8423254
2104 8683477 8549245 8426718
2105 8281101 8626268 8504470
2106 8255293 8695709 8577796
2107 7949557 8758967 8631445
2108 7675756 8815799 8693977
2109 7664894 8886510 8768323
2110 7553099 8900791 8776085
2111 7524260 8912391 8789760
2112 7879995 8906109 8785060
2113 8126904 8886763 8760764
2114 8402491 8877541 8751085
2115 8757990 8845744 8715637
2116 8709413 8802452 8677568
2117 8983488 8728149 8597279
2118 9012842 8655783 8524163
2119 8971001 8579137 8447907
2120 8808845 8551441 8423157
2121 9006334 8527864 8403756
2122 8996918 8532050 8411447
2123 8845142 8544549 8421980
2124 8681590 8550204 8425937
2125 8560741 8612774 8488060
2126 8653656 8644653 8522743
2127 8189914 8712136 8593087
2128 7932604 8769442 8644713
2129 7761537 8813301 8688737
2130 7864705 8868270 8739593
2131 7795506 8865095 8742406
2132 8230721 8869832 8744819
2133 8436450 8862966 8734561
2134 8385130 8838000 8705838
2135 8538047 8794482 8669895
2136 8457760 8739159 8608406
2137 8771847 8694925 8568272
2138 8953051 8602018 8466731
2139 9408082 8533927 8408270
2140 9207039 8495900 8365143
2141 9238488 8498835 8372222
2142 8964217 8518919 8393779
2143 9099557 8516909 8393131
2144 9092511 8560646 8429965
2145 8756348 8609171 8491488
2146 8252888 8639171 8514406
2147 7873820 8714981 8592160
2148 8158973 8765218 8641268
2149 7886953 8814706 8689909
2150 7776847 8864829 8736129
2151 7580757 8921968 8797024
2152 7757821 8910894 8789065
2153 8081674 8899115 8775063
2154 8352231 8858543 8731226
2155 8674129 8795619 8671219
2156 8859070 8732871 8609116
2157 8877085 8670701 8542238
2158 8902376 8617823 8487508
2159 8964368 8600128 8473780
2160 9127548 8547516 8413363
2161 9271917 8507394 8384141
2162 8707772 8514806 8385663
2163 8438848 8551540 8429723
2164 8389605 8608704 8483727
2165 8391175 8671888 8549197
2166 8327713 8738171 8621588
2167 7930142 8805890 8679781
2168 7671275 8851035 8722940
2169 7259973 8878768 8758755
2170 7507006 8929306 8804871
2171 7504757 8942843 8822267
2172 8057928 8940916 8810924
2173 8138610 8911188 8786149
2174 8068121 8868855 8738770
2175 8254121 8823937 8702978
2176 8653012 8748532 8621153
2177 8818147 8705966 8581998
2178 8824101 8646613 8518132
2179 9064165 8612196 8482144
2180 9076023 8563622 8434195
2181 9282334 8542397 8415869
2182 9114811 8528920 8404023
2183 8918561 8537742 8415387
2184 8660125 8546245 8420509
2185 8357759 8612779 8494792
2186 8263181 8670519 8548508
2187 8107143 8725667 8604536
2188 8054134 8791103 8659624
2189 8013340 8838792 8715814
2190 7977334 8886835 8765780
2191 7800952 8918661 8798903
2192 7825131 8920732 8791628
2193 7806519 8900497 8773355
2194 8138789 8843689 8711005
2195 8502071 8797269 8671880
2196 8522146 8723524 8591462
2197 8759664 8666163 8544153
2198 8894517 8646949 8514780
2199 8972425 8621183 8489522
2200 8855272 8614744 8487818
2201 8932426 8608591 8478969
2202 8716460 8619845 8495458
2203 8765736 8650842 8525470
2204 8700508 8684078 8567994
2205 8193978 8728501 8605252
2206 8243399 8768106 8649150
2207 8065542 8806647 8686922
2208 7779280 8866011 8743632
2209 7564917 8917613 8794290
2210 7746531 8914916 8791282
2211 7563038 8937374 8813474
2212 7766025 8915806 8787160
2213 7979753 8940933 8810081
2214 8280026 8903010 8777685
2215 8611271 8910021 8783194
2216 8822197 8859658 8734805
2217 8906582 8817693 8692283
2218 9066910 8751672 8622484
2219 9202625 8668402 8543540
2220 9184157 8605899 8478264
2221 9250155 8574394 8449669
2222 9069968 8572292 8448578
2223 8835380 8576493 8451359
2224 8330566 8609915 8483527
2225 7957605 8678838 8558152
2226 8107267 8769567 8645146
2227 8442039 8810771 8693120
2228 8155527 8880281 8757689
2229 7814003 8916861 8796932
2230 7710960 8948453 8824391
2231 7614004 8941242 8815470
2232 7834853 8925812 8805906
2233 8197499 8913912 8782042
2234 8503449 8866127 8741232
2235 8344632 8838818 8710921
2236 8165112 8796140 8673314
2237 8508503 8721672 8591304
2238 8759126 8650128 8522028
2239 9024792 8598725 8472024
2240 8993940 8538786 8410182
2241 9092647 8531692 8406696
2242 9004998 8543027 8412475
2243 9185283 8552365 8426006
2244 8942995 8571107 8449547
2245 8288349 8643619 8521622
2246 8363860 8711031 8584056
2247 8268089 8774321 8651585
2248 8079298 8816150 8691718
2249 8064162 8844940 8721382
2250 8116375 8865526 8750862
2251 7726262 8918337 8797092
2252 7940405 8922239 8795007
2253 8252553 8885340 8757307
2254 8503045 8847928 8721868
2255 8948968 8810489 8677206
2256 9128469 8748898 8625216
2257 9616288 8677525 8546405
2258 10024521 8600648 8475278
2259 10185760 8577222 8449805
2260 10489775 8515363 8389314
2261 10723236 8485836 8357722
2262 10498306 8466494 8337235
2263 10317453 8465312 8339417
2264 10136801 8518340 8395319
2265 9916840 8583648 8457430
2266 9941373 8673318 8552732
2267 9701340 8751704 8631967
2268 9683902 8787295 8666506
2269 9349687 8820106 8694791
2270 9249130 8849826 8725392
2271 9284260 8849148 8726871
2272 9577796 8847125 8723468
2273 9665087 8812499 8684774
2274 9718020 8788591 8662553
2275 9777599 8754914 8624591
2276 9636006 8683971 8561032
2277 9407523 8654263 8528805
2278 9292138 8618727 8495768
2279 9190282 8610523 8489226
2280 8953691 8593067 8471598
2281 8818530 8571833 8443501
2282 8636210 8557657 8430354
2283 8239795 8561204 8429958
2284 7871760 8608524 8484318
2285 7331934 8682769 8560752
2286 7118845 8750014 8628020
2287 6971521 8803063 8686490
2288 6749505 8882925 8758560
2289 6538873 8962973 8841237
2290 6608725 8997203 8870617
2291 6286360 8996852 8875986
2292 6287600 9009999 8886503
2293 6253401 8991439 8869301
2294 6508039 8968057 8838795
2295 6996800 8920909 8791622
2296 7027945 8869658 8735501
2297 7086372 8804836 8676299
2298 6824375 8754255 8628695
2299 7182908 8703064 8575284
2300 7621663 8654951 8527370
2301 8136871 8641152 8517026
2302 7906995 8637590 8504273
2303 7808106 8640809 8518936
2304 7688127 8698380 8570322
2305 7522739 8737439 8613722
2306 7481429 8773638 8648034
2307 7382047 8843681 8717433
2308 7646876 8886398 8763679
2309 7576961 8925283 8800761
2310 7649851 8933137 8806475
2311 7452200 8927006 8801048
2312 7492383 8922466 8801870
2313 7556943 8906119 8775633
2314 7785873 8877525 8749796
2315 8269896 8870673 8739186
2316 8316554 8834649 8706616
2317 8516788 8787832 8664117
2318 8810607 8726963 8597094
2319 9099537 8637785 8509737
2320 8998818 8576993 8451435
2321 8857723 8540757 8416742
2322 8700175 8542031 8411603
2323 8693362 8563271 8439046
2324 8421506 8601949 8479328
2325 8135015 8657825 8534120
2326 7992311 8715720 8592348
2327 7851658 8756748 8626930
2328 8121635 8821712 8695981
2329 8034395 8870012 8755363
2330 7879289 8897339 8773201
2331 7614062 8919045 8798227
2332 7802929 8922893 8796542
2333 8064795 8856487 8727014
2334 8217790 8806628 8678575
2335 8394132 8765912 8641148
2336 8635093 8703296 8575035
2337 8952554 8652558 8521422
2338 8979800 8596326 8468021
2339 9130872 8562711 8434936
2340 9265046 8562312 8430364
2341 9301604 8533760 8407635
2342 9215747 8534068 8412172
2343 9247001 8563076 8439563
2344 8929760 8570390 8445718
2345 8582257 8629891 8508576
2346 8533559 8675086 8548436
2347 8231841 8753837 8630669
2348 7997758 8813887 8687667
2349 7795899 8845319 8720655
2350 7828971 8889306 8762812
2351 7551420 8923887 8800347
2352 7503123 8964232 8837306
2353 7995440 8939958 8820329
2354 8229001 8894368 8763228
2355 8504875 8817228 8692820
2356 8710967 8753276 8624462
2357 8731061 8703588 8579748
2358 8745281 8674962 8548209
2359 9279756 8624892 8501269
2360 9343773 8574481 8449930
2361 9412104 8534436 8408212
2362 9244437 8515131 8393057
2363 9019991 8558120 8430499
2364 8763383 8580944 8463178
2365 8348476 8661444 8544460
2366 7912824 8751573 8625772
2367 7595749 8834883 8713342
2368 8069923 8856499 8727660
2369 8126391 8884539 8769426
2370 8162672 8916867 8793892
2371 8204476 8936254 8815918
2372 8456388 8926481 8799291
2373 8484718 8901627 8776062
2374 8758608 8878503 8756015
2375 9088333 8806757 8675224
2376 8925132 8760510 8635572
2377 8915667 8710730 8583700
2378 8823372 8653336 8519646
2379 9079617 8611723 8479170
2380 9211787 8569787 8439595
2381 9511425 8535888 8407823
2382 9385590 8523288 8396807
2383 9154951 8523160 8398226
2384 8856491 8557057 8432157
2385 8461091 8593120 8470694
2386 8361023 8663272 8536017
2387 8256287 8729392 8600357
2388 8196839 8783142 8662282
2389 7905033 8828526 8704552
2390 8047169 8840674 8719917
2391 7755863 8866556 8737995
2392 7817751 8880420 8753917
2393 8055412 8846998 8719457
2394 8454230 8836024 8708377
2395 8897218 8783333 8651676
2396 8975711 8726208 8599191
2397 9036436 8685653 8560129
2398 9135008 8641923 8523187
2399 9364934 8602215 8473029
2400 9444000 8557050 8427798
2401 9470467 8563833 8439517
2402 9217550 8544233 8416138
2403 9070880 8573262 8449819
2404 8907680 8590808 8463794
2405 8457112 8636740 8517017
2406 8491487 8712346 8587854
2407 8378717 8768212 8644953
2408 8068950 8850343 8723940
2409 7610574 8902923 8787975
2410 7745504 8936333 8811493
2411 7738304 8916484 8790243
2412 8292009 8912130 8789512
2413 8678029 8885502 8768283
2414 8935742 8867840 8745640
2415 8915949 8821553 8697040
2416 8923855 8802808 8682403
2417 9238151 8736672 8607761
2418 9365196 8665656 8537420
2419 9487904 8611724 8479053
2420 9461368 8574116 8446616
2421 9522773 8542689 8420927
2422 9290914 8546380 8416453
2423 9026807 8559821 8432552
2424 8899168 8572811 8445124
2425 8586859 8613017 8490222
2426 8591748 8691585 8564264
2427 8420368 8729994 8613227
2428 8253835 8812300 8689396
2429 8148797 8852955 8729319
2430 8409782 8896795 8768405
2431 8356741 8900088 8775833
2432 8682322 8906446 8783572
2433 8434575 8883069 8758862
2434 8597879 8858184 8736956
2435 8896409 8801780 8671233
2436 8742664 8757363 8630737
2437 9090692 8726912 8597828
2438 9302710 8669340 8545610
2439 9113232 8629613 8500032
2440 8786658 8615135 8491570
2441 9271949 8599884 8470750
2442 9366889 8556203 8430712
2443 9233611 8593460 8465732
2444 8767229 8612193 8485924
2445 8502231 8679536 8558386
2446 8523510 8718318 8591476
2447 8485950 8782201 8654949
2448 8260419 8820485 8697326
2449 8073393 8867871 8745859
2450 8204189 8900105 8782107
2451 8112921 8974041 8848930
2452 8293443 8974137 8852515
2453 8741303 8968437 8853619
2454 8842608 8916413 8790587
2455 9071865 8866247 8741797
2456 9261960 8793523 8665884
2457 9496866 8724087 8598664
2458 9769479 8656796 8530205
2459 9794278 8613968 8487322
2460 9349297 8581398 8452869
2461 9703265 8543199 8416148
2462 9683206 8554870 8428610
2463 9503286 8552743 8427111
2464 9216879 8574934 8451290
2465 8930186 8658680 8537091
2466 8807363 8746030 8625847
2467 8637714 8796588 8673531
2468 8692360 8838362 8718256
2469 8607467 8852406 8727538
2470 8645114 8880350 8754919
2471 8340827 8904743 8779965
2472 8534511 8901605 8774590
2473 8503260 8883910 8758603
2474 8758664 8868790 8744911
2475 9365487 8818412 8691173
2476 9611070 8718260 8589675
2477 9699880 8671206 8546216
2478 9679988 8621724 8495786
2479 9891968 8573085 8449010
2480 9937876 8533393 8405433
2481 10191557 8526080 8398187
2482 9971413 8524347 8404441
2483 9812059 8547904 8420662
2484 9512345 8559473 8433321
2485 9363458 8631673 8511537
2486 9148511 8683450 8562706
2487 8920018 8760972 8636711
2488 8857998 8832125 8707496
2489 8784987 8876715 8751045
2490 8803772 8900623 8781452
2491 8646358 8903228 8779738
2492 8900547 8888767 8764819
2493 8759151 8859999 8739645
2494 9104635 8844455 8715258
2495 9540817 8764685 8634904
2496 9722691 8727503 8599732
2497 9796029 8682628 8557715
2498 9907615 8627839 8500503
2499 9964608 8600438 8469768
2500 9769716 8587228 8459958
2501 9947280 8579497 8456908
2502 9907776 8583983 8457033
2503 9816904 8563646 8435988
2504 9626088 8556753 8430033
2505 9462001 8591380 8468275
2506 9142167 8646764 8522071
2507 8903714 8730747 8611460
2508 8850866 8790404 8669569
2509 8612222 8856035 8740039
2510 8653010 8883232 8755804
2511 8578313 8888697 8762723
2512 8864826 8901045 8778531
2513 8988486 8867124 8738378
2514 9342050 8824307 8700483
2515 9458446 8793479 8668892
2516 9548986 8755187 8627665
2517 9590862 8700744 8577609
2518 9934010 8628579 8505347
2519 10278892 8568925 8432699
2520 9956773 8518508 8391367
2521 9808596 8499820 8377870
2522 9565562 8514404 8392904
2523 9729522 8523834 8399530
2524 9760964 8571985 8449164
2525 9367539 8596119 8471852
2526 8976045 8632739 8507629
2527 8808534 8719461 8595570
2528 8766823 8794365 8672973
2529 8655119 8846058 8720876
2530 8641563 8866592 8744053
2531 8411193 8894263 8769516
2532 8612259 8899451 8774440
2533 8679200 8886120 8761505
2534 8659960 8856880 8734955
2535 8823268 8821814 8694162
2536 8756073 8785491 8658210
2537 8974158 8708325 8583854
2538 9322053 8647135 8524384
2539 9808824 8586020 8457590
2540 9658402 8555622 8431593
2541 9571272 8549668 8425465
2542 9298505 8545668 8418791
2543 9362941 8573988 8444279
2544 9077328 8582499 8456813
2545 9002761 8629526 8504486
2546 8845248 8667289 8541992
2547 8651883 8737064 8620567
2548 8415805 8803780 8690418
2549 8367789 8833658 8710951
2550 8460274 8889048 8756743
2551 8005371 8910828 8786678
2552 8144406 8900329 8779168
2553 8313392 8900861 8776025
2554 8472780 8883199 8762356
2555 8950063 8825826 8692849
2556 9026296 8749512 8622220
2557 8945103 8704382 8578983
2558 9132990 8687858 8560678
2559 9314079 8641492 8516511
2560 9254070 8590864 8466097
2561 9403692 8576368 8446791
2562 9034282 8558705 8435574
2563 9046405 8580780 8457467
2564 9018673 8593375 8471981
2565 8742553 8701227 8573715
2566 8599042 8772324 8649696
2567 8173666 8853824 8731791
2568 7538941 8889354 8766015
2569 7594575 8944119 8815408
2570 8055714 8928993 8804554
2571 8245790 8936847 8810824
2572 8274660 8909550 8782789
2573 8132520 8897519 8777761
2574 8284381 8882177 8753746
2575 8429296 8828111 8695646
2576 8697652 8761059 8636142
2577 9029626 8702940 8574096
2578 9476258 8657389 8527449
2579 9405844 8595068 8465767
2580 9426902 8575305 8447409
2581 9453463 8546633 8418796
2582 8888572 8541732 8412707
2583 8677239 8568138 8446981
2584 8521996 8613905 8488493
2585 8405858 8689131 8569111
2586 8554702 8750721 8625505
2587 8342817 8774198 8649343
2588 8166534 8838932 8718603
2589 7804992 8904990 8787863
2590 7909289 8955970 8828617
2591 7489527 9002607 8885106
2592 7745612 8999307 8877830
2593 8136532 8974825 8851990
2594 8536669 8923090 8795481
2595 8676790 8831363 8706391
2596 8744913 8778633 8652538
2597 8959930 8715842 8586036
2598 9390137 8652004 8524174
2599 9603889 8607643 8482307
2600 9322502 8589896 8464351
2601 9243151 8604596 8479565
2602 8822025 8610406 8488313
2603 8696095 8638613 8511575
2604 8725978 8680612 8546565
2605 8573634 8716131 8593909
2606 8672039 8730263 8606353
2607 8433411 8742614 8621469
2608 8065560 8828902 8706006
2609 7920046 8871122 8751619
2610 8042107 8913391 8791801
2611 7901217 8928540 8808030
2612 8022572 8942168 8817367
2613 7920933 8917783 8790855
2614 7725672 8887123 8760158
2615 8460846 8876555 8754087
2616 8851474 8814974 8687464
2617 8806873 8766338 8636114
2618 8858361 8692905 8562661
2619 9275221 8620712 8494070
2620 9308899 8558592 8432295
2621 9507621 8496814 8369047
2622 9090452 8505755 8374044
2623 8915581 8524183 8397336
2624 8682221 8547881 8428947
2625 8244993 8625083 8501599
2626 8056004 8684204 8562190
2627 8108943 8753910 8634788
2628 8102997 8827636 8706635
2629 7844723 8904935 8777220
2630 7854894 8922719 8798628
2631 7755117 8938523 8810597
2632 7917749 8937135 8806387
2633 8108754 8885306 8757034
2634 8383264 8846625 8721957
2635 8559768 8792524 8668289
2636 8663638 8747797 8622618
2637 8762351 8677807 8553667
2638 8966983 8628276 8495018
2639 9307082 8573573 8440669
2640 9303326 8521939 8394656
2641 9307756 8512483 8382919
2642 8846932 8506437 8383124
2643 8718397 8560782 8447772
2644 8516306 8625011 8498931
2645 8627525 8661642 8541877
2646 8519584 8729139 8604657
2647 8005582 8774280 8650255
2648 7523792 8872215 8748781
2649 7648858 8926707 8809176
2650 7611789 9007726 8882883
2651 7599434 9047880 8923515
2652 7958035 9000320 8877210
2653 7894310 8975043 8851273
2654 7979540 8968109 8844707
2655 8175047 8868870 8740625
2656 8555605 8822468 8693295
2657 9192226 8748005 8621000
2658 9272471 8663771 8535680
2659 9292136 8613295 8485289
2660 9209503 8574863 8446701
2661 9225215 8555178 8432465
2662 8824877 8548177 8422306
2663 8815605 8572304 8449985
2664 8579525 8608317 8488532
2665 8282766 8652154 8530668
2666 8203743 8729817 8608751
2667 8122746 8808884 8692789
2668 7995709 8870488 8743968
2669 7878018 8914597 8792893
2670 8146777 8949711 8829497
2671 8052212 8960773 8834979
2672 8117044 8936360 8810058
2673 8118335 8910012 8787036
2674 8383433 8854942 8726791
2675 8938437 8792702 8666010
2676 9144993 8764476 8640655
2677 9034139 8683198 8554540
2678 9225595 8607147 8482275
2679 9254331 8571797 8444262
2680 9048013 8537045 8409354
2681 9129106 8514003 8389846
2682 9289770 8513746 8388316
2683 9149207 8545372 8422624
2684 8843437 8568762 8438579
2685 8401394 8652408 8538066
2686 8320785 8715144 8593464
2687 7859510 8763289 8643948
2688 8223888 8830923 8706428
2689 8119535 8874908 8754061
2690 8343005 8900867 8771976
2691 8028215 8901154 8782350
2692 8085357 8916163 8793980
2693 8057965 8892988 8767199
2694 8296117 8878346 8749370
2695 8822820 8777250 8651799
2696 8882302 8719634 8590446
2697 8898117 8681626 8557511
2698 8864872 8640463 8515704
2699 9192899 8599651 8476203
2700 9340864 8582890 8460233
2701 9510169 8593945 8477063
2702 9141361 8619623 8497630
2703 9139390 8624024 8501284
2704 9040658 8625996 8502815
2705 8820823 8671555 8547376
2706 8455664 8755579 8634423
2707 8166359 8791586 8665217
2708 7994604 8829501 8706044
2709 8112991 8864549 8736438
2710 8192531 8858719 8734479
2711 7693515 8893246 8776897
2712 7973661 8913668 8792646
2713 8304188 8900516 8772899
2714 8276676 8844065 8717571
2715 8487709 8813544 8681423
2716 8806056 8788460 8660790
2717 9008418 8742466 8611084
2718 9214417 8693262 8566001
2719 9479808 8620838 8495130
2720 9316304 8575491 8446983
2721 8918637 8548825 8421805
2722 8795089 8553283 8429446
2723 8944659 8552381 8429202
2724 8793452 8595602 8472517
2725 8307205 8656890 8538216
2726 8182779 8721024 8593589
2727 8001135 8771903 8655141
2728 7826143 8845234 8724609
2729 7854600 8901860 8776308
2730 7809138 8933752 8813402
2731 7766145 8956525 8834949
2732 8073636 8916345 8795214
2733 8247556 8898348 8775031
2734 8413479 8860993 8733346
2735 8667735 8812544 8682529
2736 8899072 8749729 8624512
2737 9104728 8726422 8594652
2738 9268374 8659448 8534056
2739 9428914 8607385 8478438
2740 9330847 8557066 8433308
2741 9216802 8541118 8417401
2742 8961969 8556768 8429783
2743 8876355 8572562 8451898
2744 8768106 8602605 8475945
2745 8382591 8642791 8519423
2746 8306643 8695632 8571710
2747 8204461 8751194 8628874
2748 7914640 8802442 8682210
2749 7812300 8848612 8729764
2750 7914769 8890109 8765625
2751 7654281 8952960 8826134
2752 7655395 8948132 8824172
2753 7874802 8909527 8783937
2754 8082044 8880465 8755819
2755 8436037 8834808 8700897
2756 8815131 8764993 8638880
2757 8849359 8709202 8578747
2758 8917107 8652878 8524574
2759 9093351 8601593 8470539
2760 9455597 8554999 8430020
2761 9561434 8530622 8403100
2762 9254915 8513033 8391129
2763 9183333 8554235 8433284
2764 8808440 8600398 8476719
2765 8352492 8646090 8530003
2766 8404947 8725047 8603244
2767 8245946 8789890 8675139
2768 8130501 8858144 8731612
2769 7881852 8892240 8770584
2770 7958503 8918783 8793868
2771 7866468 8929963 8811597
2772 8051172 8936545 8812555
2773 8170042 8905703 8785336
2774 8506223 8880176 8756246
2775 8744195 8830971 8700640
2776 8732416 8766224 8635127
2777 8865377 8717948 8588015
2778 9092505 8645315 8516671
2779 9558099 8596730 8466387
2780 9420474 8551316 8418911
2781 9516878 8558206 8437657
2782 9339370 8543443 8412571
2783 9045384 8548285 8423103
2784 8397303 8581186 8457497
2785 8038658 8629956 8510077
2786 8132924 8700982 8577977
2787 8010981 8762911 8639941
2788 7789358 8811742 8690007
2789 7848752 8860226 8738592
2790 7794299 8914738 8794860
2791 7762720 8958559 8835269
2792 8127870 8939691 8813877
2793 8217200 8903984 8774865
2794 8506548 8879226 8751770
2795 9129668 8810079 8685260
2796 9195712 8749142 8617939
2797 9047617 8685374 8556418
2798 8885854 8650817 8518206
2799 8942149 8603832 8473983
2800 8639686 8607593 8477232
2801 8971414 8611809 8484374
2802 9007057 8596574 8473356
2803 9044829 8595289 8472673
2804 8857678 8604242 8477984
2805 8537425 8664536 8539702
2806 8342512 8724273 8601173
2807 8229155 8780930 8659779
2808 7980862 8818719 8693458
2809 7891288 8871311 8758985
2810 8051792 8901881 8778255
2811 7861688 8936607 8814972
2812 7949112 8947707 8825516
2813 8172043 8925246 8791517
2814 8347753 8873800 8749945
2815 8218905 8846797 8724243
2816 8637201 8841748 8716249
2817 9110444 8784711 8657535
2818 9317656 8724868 8596745
2819 9366425 8666596 8539423
2820 9210849 8604642 8476062
2821 9162572 8601053 8477724
2822 8867391 8598020 8477016
2823 8664341 8607207 8482105
2824 8562383 8632287 8507581
2825 8399600 8680492 8554904
2826 8611624 8736364 8618914
2827 8610763 8785175 8662451
2828 8482815 8828075 8701572
2829 8265015 8861265 8740947
2830 8177536 8908826 8785097
2831 8095821 8919011 8802346
2832 8531027 8881285 8756423
2833 8493158 8866701 8742212
2834 8424511 8834826 8706075
2835 8659115 8770303 8641027
2836 9057169 8726219 8599780
2837 9029814 8671864 8549165
2838 9185450 8629363 8503315
2839 9494586 8574560 8445257
2840 9489641 8549285 8420142
2841 9615462 8545192 8411516
2842 9301351 8539356 8406404
2843 9104288 8555057 8429799
2844 8638620 8606269 8483747
2845 8473519 8674014 8556593
2846 8453347 8718413 8592618
2847 8351200 8770764 8648195
2848 8423533 8815223 8694485
2849 8175454 8860971 8739824
2850 8203839 8898991 8772904
2851 7950182 8941361 8813071
2852 8067058 8926398 8807482
2853 8187078 8919417 8804180
2854 8550866 8883153 8760435
2855 8989953 8813584 8685115
2856 8934063 8781737 8653194
2857 9033244 8738042 8617349
2858 9319443 8687538 8560143
2859 9488155 8639296 8516580
2860 9195153 8593489 8468317
2861 9114913 8553290 8426629
2862 9018876 8564863 8440776
2863 9052429 8582408 8458126
2864 8930063 8618292 8495247
2865 8662890 8671214 8544478
2866 8432405 8764983 8644614
2867 8102501 8865194 8744286
2868 7786607 8937772 8815769
2869 7852119 8964719 8841645
2870 8012456 8984135 8859420
2871 7650337 8995997 8870045
2872 7959363 8986830 8860393
2873 8301279 8932231 8808785
2874 8374923 8908946 8785892
2875 8543843 8887042 8753214
2876 8622205 8827117 8702994
2877 8893527 8773456 8648439
2878 9014005 8708193 8582720
2879 8753325 8669908 8541771
2880 8720220 8642498 8515367
2881 9226070 8602939 8476291
2882 9167681 8607318 8481869
2883 9093301 8625436 8504367
2884 8693767 8656928 8537718
2885 8342856 8729548 8608160
2886 8370321 8766135 8642693
2887 8194817 8835605 8711090
2888 7985803 8889163 8764951
2889 7856108 8907522 8780855
2890 8183519 8940891 8818550
2891 7865658 8954259 8831875
2892 8237875 8956942 8841726
2893 8269117 8938726 8811310
2894 8430650 8875765 8751605
2895 8625249 8816567 8694875
2896 8538761 8759478 8636907
2897 8429406 8724575 8600118
2898 8790813 8697807 8563146
2899 9190337 8617211 8489550
2900 8754508 8566156 8440341
2901 8677519 8564685 8442421
2902 8720208 8602767 8478269
2903 8845803 8612276 8492959
2904 8659362 8634426 8511291
2905 8474579 8711844 8596426
2906 8241921 8767289 8642761
2907 8086152 8814002 8685063
2908 8010467 8867549 8742186
2909 7635066 8916806 8801425
2910 7789388 8940111 8813320
2911 7890550 8956706 8830256
2912 8263648 8936608 8816097
2913 8481334 8936182 8810492
2914 8781630 8920373 8793408
2915 9123868 8842570 8715741
2916 9206302 8819151 8693797
2917 9079694 8780431 8654838
2918 8756815 8727502 8602870
2919 8781407 8673163 8547298
2920 8794981 8655324 8528632
2921 9065407 8640306 8511771
2922 8849640 8633065 8509803
2923 9008088 8649793 8519349
2924 8934391 8660080 8532768
2925 8497570 8715352 8591907
2926 8107211 8744735 8628496
2927 7946028 8794944 8671866
2928 8118680 8856231 8733053
2929 8006041 8894336 8776088
2930 7980983 8933258 8808376
2931 7776629 8943744 8821428
2932 7956825 8974518 8853192
2933 8107643 8953132 8830365
2934 8504919 8915216 8787036
2935 8843825 8823343 8697819
2936 8877368 8756411 8631012
2937 9029736 8698214 8569073
2938 9063642 8667146 8535994
2939 9091810 8615746 8490617
2940 9138673 8572819 8446700
2941 9358975 8575071 8447578
2942 9410917 8549332 8425968
2943 9213556 8571354 8448540
2944 8766861 8625428 8506381
2945 8419157 8715146 8592124
2946 8373840 8762635 8640893
2947 8362932 8817630 8700966
2948 8096581 8862936 8738016
2949 8326310 8902715 8782288
2950 8942363 8915234 8797894
2951 8707956 8936837 8815917
2952 9292518 8906696 8782484
2953 9505758 8857601 8732165
2954 9811216 8809272 8682813
2955 10122786 8737220 8610488
2956 9967190 8693126 8566503
2957 10109981 8652539 8527473
2958 10490368 8589482 8468394
2959 11032112 8521764 8395207
2960 11083703 8485104 8356930
2961 11133885 8448623 8323221
2962 10841278 8452664 8333199
2963 10495476 8491014 8370732
2964 10214709 8519453 8393317
2965 9923048 8580579 8463978
2966 9747259 8651897 8532780
2967 9684848 8746077 8623146
2968 9527265 8803602 8677950
2969 9312941 8868999 8745342
2970 9639524 8878740 8755456
2971 9457493 8893562 8770775
2972 9524160 8880637 8751842
2973 9174585 8843831 8724104
2974 8931387 8839946 8712481
2975 8893871 8772694 8647547
2976 8425926 8731148 8604819
2977 8298907 8710802 8585871
2978 8266722 8690466 8562272
2979 8507497 8644577 8525621
2980 8336233 8633416 8506582
2981 8409693 8625161 8498965
2982 7616605 8653041 8528167
2983 7239147 8688417 8569381
2984 7095131 8736444 8609898
2985 7107042 8814165 8691436
2986 6914275 8868627 8745218
2987 6647008 8910165 8791520
2988 6142528 8989180 8867379
2989 5945467 9062941 8938749
2990 6029975 9090299 8965029
2991 6040387 9101772 8977291
2992 6392959 9091682 8960963
2993 6555173 9038163 8914074
2994 7003150 8996938 8871726
2995 7456069 8935238 8807344
2996 7749970 8864284 8738259
2997 8003848 8785621 8661430
2998 8001136 8747260 8621324
2999 8037361 8709171 8576398
3000 8102277 8702249 8584578
3001 8541935 8673291 8548273
3002 8543414 8656582 8530314
3003 8338578 8667025 8543698
3004 8081402 8702736 8575919
3005 7717368 8767592 8649759
3006 7731724 8821136 8692558
3007 7719465 8853141 8729658
3008 7681971 8890298 8769182
3009 7630697 8934901 8809667
3010 7687938 8943623 8824492
3011 7593105 8945794 8829716
3012 7680145 8969916 8849788
3013 7940222 8933303 8808651
3014 8307747 8950587 8830723
3015 8487669 8880089 8750555
3016 8648534 8853323 8727947
3017 8747543 8797488 8669987
3018 8923380 8739813 8613558
3019 9179838 8667365 8537764
3020 9118246 8601142 8478084
3021 9256335 8571786 8449893
3022 8876362 8558851 8432841
3023 8955129 8590114 8464933
3024 8802540 8598591 8471519
3025 8446287 8652330 8527321
3026 8341276 8737205 8612761
3027 8170747 8792773 8671881
3028 7917830 8837637 8713932
3029 7497703 8911437 8786977
3030 7760115 8954259 8826639
3031 7662126 8970380 8843497
3032 7948945 8970924 8850000
3033 8361976 8930812 8810957
3034 8490482 8876132 8751175
3035 8848669 8803968 8676929
3036 8939921 8734811 8607575
3037 9088301 8679218 8550281
3038 9312626 8623465 8496111
3039 9190926 8576563 8460180
3040 9052354 8552405 8432258
3041 9197628 8546925 8423943
3042 9011247 8569807 8445647
3043 9199673 8571315 8442644
3044 8979348 8591938 8466912
3045 8526565 8652269 8527063
3046 8400735 8694675 8569633
3047 8250565 8770297 8643061
3048 8231621 8810561 8688844
3049 8122851 8878383 8762941
3050 8244054 8892794 8768743
3051 7823534 8923380 8795941
3052 8262980 8931085 8806875
3053 8515533 8902684 8773556
3054 8677114 8868555 8743526
3055 8828007 8822442 8698147
3056 8964722 8782422 8657888
3057 8994945 8722757 8592245
3058 9024442 8670160 8544539
3059 8921718 8607847 8480864
3060 8984711 8620037 8497692
3061 9538155 8596374 8470333
3062 9510963 8565133 8442739
3063 9258017 8598109 8470867
3064 8775362 8633739 8514584
3065 8498529 8702568 8582945
3066 8405214 8775922 8656063
3067 8176271 8857750 8734390
3068 8404498 8936374 8818416
3069 8349954 8972624 8847753
3070 8260089 9007176 8884972
3071 8123136 9042990 8914303
3072 8284833 9010305 8888992
3073 8213869 8987837 8863679
3074 8649208 8916157 8792402
3075 8793233 8860043 8730904
3076 8821578 8835024 8715185
3077 9107292 8776922 8647308
3078 9192119 8700064 8574556
3079 9373562 8662363 8533208
3080 9519079 8608757 8480921
3081 9484375 8598022 8475679
3082 9001441 8602607 8483316
3083 8787706 8630843 8507719
3084 8658691 8656167 8528502
3085 8555082 8711333 8588856
3086 8492306 8771585 8652652
3087 8374925 8848883 8721914
3088 8337452 8891459 8772493
3089 8278477 8941078 8819552
3090 8222651 8953130 8827521
3091 8175463 8981096 8856184
3092 8525026 9000823 8883801
3093 8495612 8965845 8848737
3094 8659023 8914036 8791865
3095 8619763 8870222 8743178
3096 8633198 8853556 8724567
3097 8841777 8784264 8660164
3098 9165573 8721450 8592703
3099 9531088 8657464 8528931
3100 9386369 8627585 8501215
3101 9403327 8640518 8517297
3102 9176739 8655202 8529411
3103 9179323 8674667 8556540
3104 8847282 8718206 8594523
3105 8542628 8758961 8632981
3106 8458066 8777283 8650655
3107 8263760 8836863 8716149
3108 8154133 8897770 8774603
3109 8094573 8951879 8832510
3110 8263772 8990898 8872953
3111 8187143 9026830 8906189
3112 8458321 9035840 8916068
3113 8292571 9003044 8874897
3114 8615793 8957187 8833821
3115 8970875 8895688 8770018
3116 9070103 8842296 8712848
3117 9386678 8820653 8693187
3118 9359983 8750182 8619272
3119 9183568 8673322 8549237
3120 9239938 8649088 8525093
3121 9478025 8608874 8482396
3122 9263908 8641691 8522339
3123 9258992 8665790 8540595
3124 8962632 8713962 8587579
3125 8638280 8751820 8631372
3126 8634007 8783484 8658891
3127 8790924 8799796 8681223
3128 8619661 8858965 8735985
3129 8506922 8908236 8793229
3130 8504244 8908605 8786648
3131 8516663 8932871 8810127
3132 8495614 8909419 8790515
3133 8442303 8879552 8758752
3134 8528088 8874786 8748230
3135 8835943 8809661 8687434
3136 9067964 8772442 8645259
3137 9522403 8692976 8563020
3138 9519406 8645736 8516311
3139 9555935 8606304 8482338
3140 9658011 8618779 8493615
3141 9815581 8592323 8468019
3142 9313605 8619482 8489414
3143 9518769 8644568 8525923
3144 8867246 8680487 8555246
3145 8590434 8729818 8605873
3146 8091159 8787845 8662144
3147 8256687 8844186 8724686
3148 8497219 8897488 8779179
3149 8277219 8941747 8834567
3150 8530578 8952880 8833853
3151 8336407 8989267 8870817
3152 8354706 8959908 8839330
3153 8629670 8913179 8792497
3154 9086536 8876227 8752353
3155 9365880 8827551 8700115
3156 9451784 8767394 8642993
3157 9434977 8711934 8586994
3158 9493718 8623841 8497260
3159 9681804 8588976 8455482
3160 9831385 8562704 8440266
3161 10055895 8565106 8441912
3162 9865795 8580471 8453422
3163 9718671 8566675 8441193
3164 9083289 8598064 8477347
3165 8747943 8672122 8548967
3166 8637258 8746807 8622630
3167 8688711 8814117 8693056
3168 8619660 8841497 8720646
3169 8478235 8890779 8767926
3170 8609528 8907861 8785408
3171 8466555 8920205 8800087
3172 8790130 8916659 8790676
3173 8996552 8897926 8779739
3174 9208323 8869227 8746721
3175 9402240 8795587 8668895
3176 9694914 8758690 8640358
3177 9629696 8690274 8563373
3178 9670010 8639512 8506802
3179 9751014 8604431 8479152
3180 9880765 8586175 8462019
3181 9976500 8572986 8447345
3182 9759773 8548708 8420972
3183 9798868 8558796 8432615
3184 9752408 8557242 8435883
3185 9398713 8610935 8487281
3186 9151562 8681622 8562949
3187 9244916 8770075 8648663
3188 9098280 8845627 8725675
3189 8739600 8899845 8776995
3190 8766582 8924294 8799519
3191 8699640 8934188 8814330
3192 9019659 8936074 8814624
3193 8964990 8926357 8804594
3194 9232132 8906768 8782491
3195 9344278 8853919 8724495
3196 9473024 8804711 8682229
3197 9687705 8752540 8628007
3198 9934966 8705382 8579992
3199 10001346 8673262 8548375
3200 10100417 8661491 8538066
3201 10212647 8655382 8524633
3202 9865554 8655609 8528483
3203 9887034 8709571 8592279
3204 9564831 8757145 8630277
3205 9390967 8805997 8685620
3206 9244989 8824199 8701084
3207 9195070 8832302 8709491
3208 9105874 8864751 8739618
3209 8694270 8891138 8766663
3210 8646295 8911927 8792900
3211 8507520 8919056 8795499
3212 8863516 8909997 8785154
3213 9007689 8879276 8751920
3214 9099163 8851023 8723408
3215 9221497 8812069 8681839
3216 9472075 8756759 8632960
3217 9432204 8787295 8665613
3218 9693708 8766164 8640089
3219 9967456 8707319 8579381
3220 9894453 8646379 8523949
3221 10094694 8636329 8506922
3222 9698457 8617289 8494628
3223 9664991 8635763 8509618
3224 9256282 8658832 8534677
3225 8911997 8704426 8580383
3226 8934564 8750446 8625707
3227 9086816 8820724 8697572
3228 8989075 8865605 8747106
3229 8643123 8904305 8778835
3230 8517855 8922244 8805530
3231 8288687 8961961 8833883
3232 8477656 8946234 8823423
3233 8767433 8951706 8826654
3234 9060027 8907052 8778163
3235 8982315 8809663 8680850
3236 9137739 8756075 8634298
3237 9534807 8691105 8564184
3238 9632326 8639841 8511546
3239 9630576 8597197 8469161
3240 9664732 8575428 8453354
3241 9740136 8556119 8427123
3242 9562390 8547694 8419577
3243 9281772 8575074 8454729
3244 8947883 8616871 8492544
3245 8844402 8714399 8600395
3246 8937441 8775383 8653154
3247 8698454 8826110 8706257
3248 8622129 8887888 8768414
3249 8413210 8927224 8805450
3250 8295945 8999014 8871794
3251 8243670 9036942 8912733
3252 8652563 9010001 8877392
3253 8920211 8963075 8842214
3254 8978747 8937565 8813807
3255 9125436 8855908 8728824
3256 9163056 8815522 8691439
3257 9191214 8742883 8612600
3258 9283570 8682199 8554840
3259 9190563 8629729 8506405
3260 8878876 8611477 8495438
3261 9231914 8613342 8489197
3262 9226793 8598836 8473192
3263 8996125 8606538 8485124
3264 8817463 8649468 8529923
3265 8538234 8731029 8615010
3266 8560369 8778383 8656306
3267 8483962 8848855 8730737
3268 8226939 8942384 8819703
3269 8090037 9016369 8892728
3270 8046051 9034527 8916233
3271 7895067 9018083 8891346
3272 8025079 9015060 8891067
3273 8160990 8986186 8861986
3274 8482491 8940201 8810415
3275 8708180 8870427 8743883
3276 8840020 8817093 8689088
3277 9060191 8739037 8610899
3278 9364164 8686912 8555863
3279 9284030 8630375 8503129
3280 9137981 8615023 8491061
3281 9391180 8607183 8484896
3282 8924890 8608598 8483615
3283 8906297 8611504 8486417
3284 8852438 8641309 8517759
3285 8536638 8723577 8599871
3286 8512283 8782682 8660265
3287 8333160 8824976 8703741
3288 8111723 8881310 8758112
3289 7734855 8947682 8826594
3290 7747136 8968157 8844794
3291 7877812 8983059 8857438
3292 8172422 8977614 8848820
3293 8494050 8949726 8824870
3294 8952312 8927617 8799772
3295 9052665 8832110 8708057
3296 8652617 8776684 8646966
3297 8848657 8720343 8593649
3298 9002623 8714363 8585314
3299 9164270 8671128 8542948
3300 9180981 8661788 8539944
3301 9432650 8676701 8550778
3302 9020015 8680613 8556787
3303 8888868 8669188 8546709
3304 8578562 8698282 8576898
3305 8252701 8769749 8647640
3306 8124819 8838712 8719069
3307 8112237 8867917 8746336
3308 7977826 8913511 8792245
3309 7732952 8958728 8834588
3310 7667461 8971033 8850552
3311 7901970 9008433 8875168
3312 8205392 8974361 8850668
3313 8207260 8956601 8833251
3314 8466435 8917525 8802473
3315 8694992 8848413 8721172
3316 9066094 8800937 8674514
3317 9228114 8762537 8640225
3318 9245970 8731764 8605297
3319 9362261 8700045 8577193
3320 9343892 8680560 8555096
3321 9536338 8632246 8507269
3322 9418217 8638430 8516100
3323 9407212 8643709 8521995
3324 8909196 8674290 8552065
3325 8521590 8745171 8621236
3326 8251745 8762910 8643146
3327 8258328 8841294 8724349
3328 8184517 8896783 8773191
3329 8063631 8930949 8812513
3330 8138243 8942905 8824615
3331 8182979 8981482 8860848
3332 8362892 8958900 8835055
3333 8298796 8933290 8809837
3334 8336706 8934500 8808852
3335 8669361 8876859 8752162
3336 8930854 8822402 8696531
3337 9122099 8763658 8638699
3338 9106645 8747848 8617031
3339 9159524 8697667 8574290
3340 9253603 8689693 8558262
3341 9322679 8643796 8520235
3342 8905275 8662427 8533477
3343 8553862 8657802 8534637
3344 8590006 8679716 8556169
3345 8568063 8747772 8626913
3346 8458826 8789515 8668447
3347 8242216 8829287 8711332
3348 8084080 8886178 8762869
3349 7975352 8956868 8833573
3350 7928049 8974176 8852685
3351 7933879 9015077 8886790
3352 8132696 8977121 8851436
3353 8279971 8949046 8823066
3354 8376646 8915637 8794532
3355 8394733 8869551 8737170
3356 8849985 8821147 8693133
3357 9154343 8799100 8671749
3358 9337234 8703641 8578799
3359 9279150 8657089 8525590
3360 8988849 8630803 8510871
3361 9148419 8627809 8506686
3362 9035776 8674415 8550878
3363 9047981 8704817 8577860
3364 8784626 8711608 8587479
3365 8640337 8766934 8644344
3366 8424141 8806003 8679315
3367 8259724 8878764 8760508
3368 8217902 8920155 8798608
3369 8286906 8986743 8860957
3370 8160424 8994288 8869939
3371 7756061 8982840 8853953
3372 8027873 8967708 8847084
3373 8180550 8944655 8820044
3374 8419913 8909716 8781541
3375 8580746 8841417 8717015
3376 8895180 8789055 8660886
3377 9181500 8730374 8602047
3378 9450520 8669264 8548006
3379 9353223 8634483 8506866
3380 9151960 8636250 8513783
3381 9397701 8599360 8471658
3382 9242720 8602879 8478664
3383 9266159 8616543 8488315
3384 8612401 8633814 8502505
3385 8251959 8700401 8579732
3386 8328008 8741129 8621120
3387 8233888 8809208 8685380
3388 7899399 8879185 8760333
3389 7841906 8917516 8793168
3390 8095698 8966234 8839305
3391 8104274 8981461 8855337
3392 8304071 8962381 8839552
3393 8317865 8930259 8813592
3394 8656434 8908031 8787949
3395 8891825 8864004 8739423
3396 9147810 8825451 8701640
3397 9406055 8728116 8598041
3398 9414307 8647596 8519648
3399 9379659 8603395 8476328
3400 9154403 8599367 8474518
3401 9228157 8608603 8482944
3402 9037043 8584924 8457950
3403 9026040 8594499 8465387
3404 8910159 8625415 8501617
3405 8805172 8670949 8550382
3406 8695062 8749514 8627756
3407 8529907 8818988 8699342
3408 8494335 8861753 8736331
3409 8366665 8902916 8776356
3410 8184258 8913292 8788813
3411 8102110 8937947 8809250
3412 8141841 8942074 8817660
3413 8074354 8937764 8814181
3414 8102355 8933311 8804911
3415 8265575 8852365 8726289
3416 8542658 8811430 8681021
3417 8980803 8771937 8647415
3418 9366274 8744500 8616480
3419 9340910 8681393 8554367
3420 9370509 8641809 8515964
3421 9333091 8605213 8483521
3422 9275795 8593527 8468355
3423 9269377 8595147 8468702
3424 8623336 8601988 8481349
3425 8138756 8680770 8558538
3426 8095636 8746485 8621378
3427 8320656 8803498 8676038
3428 8269577 8889340 8763164
3429 8029864 8928864 8805860
3430 8225231 8953684 8837489
3431 8192724 8979059 8859231
3432 8207778 8961276 8842849
3433 8219494 8937386 8814986
3434 8446573 8915022 8789587
3435 8506952 8839481 8709696
3436 8912578 8785594 8657500
3437 9036930 8734954 8606641
3438 9136724 8691189 8563493
3439 9215290 8625008 8495018
3440 9179020 8582538 8452800
3441 9155627 8576856 8454357
3442 9206404 8567529 8440683
3443 9040669 8581502 8456215
3444 8658899 8631956 8511119
3445 8550173 8708459 8590952
3446 8288132 8772225 8650699
3447 8207261 8823693 8704070
3448 8143524 8890511 8771817
3449 8213549 8943062 8824736
3450 8462963 8956648 8830458
3451 8274533 8976755 8854815
3452 8244162 8971330 8848702
3453 8120747 8923168 8798730
3454 8342203 8895705 8772987
3455 8550437 8822129 8696698
3456 8759127 8780516 8647548
3457 8732241 8712433 8583207
3458 8991343 8674634 8549546
3459 9318852 8640599 8510527
3460 9337176 8619359 8497731
3461 9279118 8606726 8480416
3462 9202688 8599982 8480690
3463 9031978 8619889 8494270
3464 8759074 8623703 8502876
3465 8630066 8673679 8555528
3466 8296231 8759688 8644727
3467 8499563 8843329 8719049
3468 8530757 8892045 8768918
3469 8208731 8915281 8799988
3470 7986490 8959528 8840697
3471 7913292 8967997 8847062
3472 8299421 8954568 8830126
3473 8346891 8929810 8803192
3474 8416302 8865536 8742686
3475 8688868 8788326 8659516
3476 9101022 8735908 8607189
3477 9364302 8676403 8548508
3478 9373279 8624057 8497372
3479 9346926 8594065 8472701
3480 9451196 8584813 8459277
3481 9468920 8563069 8431804
3482 9099982 8570814 8446182
3483 9010624 8595824 8476589
3484 8541458 8655122 8532883
3485 8291712 8696341 8569521
3486 8239141 8767289 8642518
3487 8078934 8840865 8723530
3488 7997302 8900326 8783345
3489 7964445 8917138 8801856
3490 8373101 8915640 8788080
3491 8336220 8904712 8780148
3492 7947471 8890206 8770348
3493 8004634 8894452 8763519
3494 8508054 8846718 8721904
3495 8715653 8775823 8649912
3496 8961948 8745913 8619430
3497 8984760 8707691 8576904
3498 9204956 8661876 8535016
3499 9599272 8634016 8504739
3500 9319457 8584208 8458996
3501 9263007 8612748 8489283
3502 9137102 8615498 8491509
3503 8906441 8640305 8520041
3504 8822555 8663844 8542268
3505 8644812 8702388 8577268
3506 8269647 8770135 8648222
3507 8062929 8817331 8691937
3508 7559157 8884570 8765860
3509 7527732 8939413 8817520
3510 7604343 8974162 8854279
3511 7808421 8993374 8872570
3512 8268456 8992458 8862645
3513 8471179 8966162 8841047
3514 8629394 8923313 8803668
3515 8731238 8850207 8723340
3516 8928751 8803081 8677212
3517 9061357 8752591 8623536
3518 9243790 8699910 8579470
3519 9214300 8689391 8561052
3520 9329128 8647970 8525319
3521 9460725 8631098 8508483
3522 9239420 8636246 8508551
3523 9066242 8638625 8513741
3524 8724801 8657144 8532809
3525 8381920 8716493 8596023
3526 8256277 8774527 8651100
3527 8324820 8826482 8700591
3528 8097889 8886205 8759771
3529 7700433 8928721 8805310
3530 7903619 8952788 8829344
3531 8079499 8973177 8848512
3532 8394145 8961034 8839189
3533 8365112 8974253 8850883
3534 8946579 8944007 8813385
3535 9107668 8847198 8720138
3536 9045627 8798676 8679610
3537 9031518 8748376 8622404
3538 9321219 8682444 8555529
3539 9528441 8628003 8498713
3540 9391849 8612954 8484133
3541 9327142 8613509 8489112
3542 9031643 8617016 8492191
3543 8911304 8644148 8526100
3544 8639591 8679218 8563009
3545 8489063 8731489 8610159
3546 8363082 8782291 8662471
3547 8468094 8840777 8722694
3548 8202342 8894769 8774673
3549 8202615 8941973 8822174
3550 8282914 8978416 8856921
3551 8343168 8980146 8852948
3552 8411338 8962706 8837025
3553 8638042 8926248 8808264
3554 8975625 8902786 8773794
3555 9193018 8816177 8690264
3556 9213543 8779374 8652202
3557 9251113 8748713 8620609
3558 9461358 8666117 8533466
3559 9602002 8610502 8485051
3560 9262103 8586246 8455182
3561 9351288 8559192 8438245
3562 9033551 8591125 8467632
3563 8939352 8603183 8477113
3564 8772066 8633232 8510145
3565 8420938 8707060 8585576
3566 8275827 8773762 8650805
3567 8382221 8863926 8744379
3568 8298990 8918734 8794509
3569 8056234 8955312 8835170
3570 7942855 8992119 8869148
3571 7895017 9024060 8895116
3572 8157672 9033082 8914467
3573 8295490 8974061 8854113
3574 8202328 8963441 8833061
3575 8340368 8882868 8752880
3576 8539132 8775502 8645740
3577 8765926 8731612 8600384
3578 9352445 8661223 8535956
3579 9443955 8602798 8476400
3580 9253091 8604684 8475007
3581 9277845 8585837 8464048
3582 9290359 8573230 8447406
3583 9118166 8608023 8483869
3584 8569061 8628004 8507293
3585 8387616 8685781 8564823
3586 8252940 8729596 8609819
3587 8222617 8817575 8696898
3588 8250148 8888442 8761381
3589 8230081 8913596 8795322
3590 7910117 8949644 8822975
3591 7769775 8970116 8847650
3592 8193775 8966080 8844012
3593 8311438 8943125 8823603
3594 8715387 8910252 8784113
3595 8793614 8861839 8737664
3596 8914991 8803404 8678278
3597 8851340 8773112 8648106
3598 9130155 8682371 8557039
3599 9400720 8628051 8498742
3600 9434295 8576687 8446459
3601 9517735 8588498 8465833
3602 9192033 8620516 8496941
3603 8841921 8629283 8502772
3604 8502211 8646757 8525368
3605 8325520 8702400 8582860
3606 8127807 8764444 8637560
3607 7866624 8822332 8700440
3608 7770503 8891867 8770541
3609 8029648 8918494 8798465
3610 7974563 8942423 8821060
3611 7744714 8959165 8837873
3612 7993081 8965292 8843830
3613 8296885 8939143 8814661
3614 8425975 8919128 8792328
3615 8625975 8869919 8743704
3616 8870724 8805010 8672269
3617 9048406 8703540 8577412
3618 9273855 8695539 8564225
3619 9166426 8667690 8539660
3620 8924368 8636687 8510404
3621 9101043 8614415 8489195
3622 8962125 8624661 8500718
3623 8818968 8644619 8526005
3624 8745034 8697926 8577480
3625 8482905 8753626 8631914
3626 8273996 8785439 8660921
3627 8120195 8859879 8747433
3628 7526263 8939231 8816437
3629 7554259 8978229 8852417
3630 7837286 9004443 8881024
3631 7901788 8989848 8869152
3632 8296183 8972741 8850746
3633 8255229 8938317 8808454
3634 8570177 8915426 8787128
3635 8611655 8847457 8717501
3636 8407686 8805367 8680679
3637 8888524 8754599 8626337
3638 9275344 8706141 8579740
3639 9445641 8642221 8518673
3640 9202565 8621581 8503035
3641 9365301 8632260 8503522
3642 9240879 8635727 8508568
3643 9210082 8656850 8536198
3644 8884746 8695440 8572051
3645 8383723 8786407 8659580
3646 8282414 8827968 8706648
3647 7933991 8863155 8743469
3648 7637098 8931480 8809438
3649 7804057 8981199 8862541
3650 8220183 8992404 8871449
3651 8450395 9021977 8904213
3652 8773751 8986253 8863736
3653 8845318 8949283 8821893
3654 9021785 8903844 8774784
3655 9276931 8833371 8705916
3656 9494629 8782846 8662787
3657 9928862 8728957 8605031
3658 10199547 8675934 8554373
3659 10488802 8595165 8470855
3660 10593990 8555479 8427756
3661 10758252 8528295 8401206
3662 10693995 8521040 8402057
3663 10667459 8529632 8404486
3664 10310509 8553711 8430219
3665 10556973 8618810 8493012
3666 10023348 8649641 8528589
3667 9695518 8731391 8610290
3668 9512831 8829371 8707748
3669 9298401 8896218 8777210
3670 9309552 8916910 8789299
3671 9323824 8905596 8781221
3672 9335887 8887508 8765390
3673 9348097 8894326 8767971
3674 9914617 8880737 8755800
3675 10119458 8810129 8680002
3676 10247783 8719574 8586963
3677 10392040 8636208 8512147
3678 10419671 8577643 8450457
3679 10131522 8538440 8414195
3680 9669803 8533966 8413723
3681 9322825 8554501 8430556
3682 8965556 8579447 8452807
3683 8436280 8617160 8502515
3684 7836072 8683184 8561879
3685 7702426 8796000 8676789
3686 7367549 8844842 8726335
3687 7117929 8897284 8776844
3688 6865183 8951885 8829338
3689 6603137 8995790 8872551
3690 6334885 9006819 8884440
3691 6155454 9022656 8897153
3692 6370673 9006963 8875812
3693 6437492 8971059 8848039
3694 6706444 8969576 8837983
3695 6958642 8909466 8785410
3696 7116981 8874047 8745592
3697 7338236 8856683 8735700
3698 7508190 8821664 8698696
3699 7555719 8789273 8664968
3700 7614048 8770586 8639466
3701 7363094 8754303 8630270
3702 7217607 8760755 8635123
3703 7322264 8778491 8652305
3704 7276798 8792273 8670982
3705 7173736 8869071 8741986
3706 7416531 8889455 8759896
3707 7464506 8899983 8778191
3708 7430703 8960541 8835684
3709 7706558 8996619 8876204
3710 7460209 9004065 8878005
3711 7335979 8981540 8857571
3712 7749041 8970865 8843643
3713 8021276 8942308 8823405
3714 8420707 8920114 8787816
3715 8510823 8848765 8721887
3716 8649487 8791402 8661622
3717 8917945 8760832 8637418
3718 9052554 8733027 8606209
3719 9221527 8719755 8588828
3720 9222197 8660539 8535494
3721 9134823 8641201 8511041
3722 8905718 8613087 8485875
3723 8875259 8627414 8502996
3724 8540796 8649654 8528704
3725 8342055 8701708 8576442
3726 8191529 8749630 8622619
3727 7931812 8821641 8696703
3728 7763203 8860366 8738467
3729 7862355 8893068 8764467
3730 8069484 8913660 8795672
3731 8258940 8944115 8820415
3732 8163069 8946542 8820717
3733 8396488 8923041 8794762
3734 8608133 8877895 8751350
3735 8703548 8816689 8689655
3736 9185525 8753860 8629467
3737 9253213 8704322 8574722
3738 9154627 8624287 8491031
3739 9229618 8573676 8454891
3740 9323997 8545063 8426103
3741 9002533 8535006 8409428
3742 8977367 8554561 8435656
3743 9102211 8566305 8442728
3744 8810334 8607825 8486676
3745 8607452 8679811 8558378
3746 8215672 8740035 8617501
3747 8179553 8804096 8679848
3748 8144299 8876368 8745753
3749 7964413 8906451 8781073
3750 8069402 8928301 8805052
3751 8001436 8973940 8847760
3752 8188821 8961632 8836031
3753 8256223 8930269 8804610
3754 8546803 8886551 8760504
3755 8806082 8829713 8695809
3756 9154762 8765537 8641012
3757 9445511 8730424 8603353
3758 9435979 8669106 8540947
3759 9116833 8620354 8495013
3760 8925818 8606347 8478715
3761 9148688 8578746 8456575
3762 9269855 8587254 8468411
3763 8909628 8617577 8495481
3764 8750783 8618301 8497888
3765 8617767 8679822 8554716
3766 8455994 8709502 8588722
3767 8328765 8782138 8657181
3768 8263565 8864915 8742391
3769 8054420 8924594 8804153
3770 8017215 8960717 8838091
3771 8187008 8960948 8833942
3772 8450379 8922325 8797244
3773 8478073 8879300 8753198
3774 8720637 8838284 8709659
3775 8841287 8759932 8636384
3776 9083534 8684778 8555859
3777 9043382 8622012 8492100
3778 9329274 8587346 8457678
3779 9582136 8547256 8418702
3780 9406010 8509946 8388232
3781 9180747 8524340 8399854
3782 9026403 8551710 8430937
3783 9249064 8584872 8460094
3784 9038614 8614071 8491959
3785 8639455 8675250 8553036
3786 8073110 8734361 8614711
3787 8169088 8789304 8673043
3788 8393937 8829124 8713574
3789 8361369 8877714 8749614
3790 8319343 8907738 8784502
3791 8067367 8908750 8790438
3792 7819478 8900610 8778097
3793 8123394 8872695 8748252
3794 8731957 8839315 8708840
3795 9049251 8753280 8628011
3796 9182069 8722535 8595447
3797 9219181 8651069 8527646
3798 9265724 8618423 8499584
3799 9395463 8588426 8460925
3800 9407222 8564066 8440618
3801 9308158 8579176 8444382
3802 9290254 8559107 8435375
3803 9250159 8542725 8416615
3804 8968988 8584336 8463147
3805 8655692 8654656 8528295
3806 8434979 8695802 8574148
3807 8135218 8778765 8650800
3808 8008806 8811851 8688451
3809 8170859 8866706 8741953
3810 8401678 8875951 8755672
3811 8349225 8870915 8743397
3812 8583565 8841882 8716336
3813 8680341 8834443 8711383
3814 8771031 8825585 8700132
3815 9131502 8746567 8619791
3816 8944709 8690498 8566475
3817 9153068 8656430 8524667
3818 9630604 8606946 8480693
3819 9489351 8581871 8455672
3820 9552827 8564657 8437509
3821 9613304 8545526 8420789
3822 9282689 8533022 8410629
3823 9187152 8564479 8436584
3824 9013888 8580496 8456185
3825 8906426 8631724 8505651
3826 8770612 8702478 8580274
3827 8527203 8752678 8634275
3828 8239811 8821114 8693599
3829 8061159 8861494 8734306
3830 8269313 8867103 8738889
3831 8127859 8872024 8744813
3832 8401705 8841478 8718065
3833 8478149 8843619 8716505
3834 8533732 8803443 8676834
3835 8966192 8777180 8655351
3836 9220092 8724752 8596259
3837 9191189 8653922 8533535
3838 9608281 8580454 8456124
3839 9593262 8550167 8421999
3840 9643424 8567506 8441055
3841 9674602 8557927 8427610
3842 9607198 8542906 8420276
3843 9493282 8565193 8438528
3844 9093909 8581157 8459330
3845 8706243 8645607 8520500
3846 8226904 8700742 8576820
3847 8185075 8788089 8664281
3848 8092276 8847503 8731427
3849 8256500 8881193 8753686
3850 8533390 8879884 8757434
3851 8571580 8905415 8788733
3852 8690744 8920963 8795242
3853 8793446 8890771 8763633
3854 8734748 8861154 8737979
3855 9137782 8787567 8662605
3856 9257900 8722020 8599169
3857 9315384 8677534 8555337
3858 9521773 8611788 8486529
3859 9874799 8573692 8444053
3860 9894181 8541185 8415536
3861 9942878 8534110 8410712
3862 9723619 8547023 8423778
3863 9568486 8580937 8459250
3864 9282777 8626208 8507485
3865 9375351 8673858 8555776
3866 8975718 8731945 8608336
3867 8799278 8785358 8660105
3868 8258290 8887220 8764389
3869 8144053 8920100 8797391
3870 8175939 8925061 8798582
3871 8288133 8923421 8802962
3872 8729059 8938588 8813743
3873 8982294 8870791 8743751
3874 9492519 8829554 8701529
3875 9787201 8755412 8631943
3876 9645872 8700692 8572830
3877 9876123 8636951 8509293
3878 9899252 8588515 8459104
3879 9902243 8560493 8437971
3880 10191046 8538744 8413515
3881 10321703 8520479 8395612
3882 9932541 8532901 8412361
3883 9392457 8552625 8435523
3884 9271804 8576860 8456240
3885 9360329 8646570 8521354
3886 9060217 8675861 8551404
3887 8741480 8723036 8601876
3888 8426877 8806114 8686611
3889 8542753 8868891 8750577
3890 8684103 8909071 8789083
3891 8686273 8926583 8806567
3892 8871677 8939556 8817131
3893 8935465 8913852 8785197
3894 9119872 8878925 8752261
3895 9452041 8790681 8662836
3896 9840559 8736397 8611162
3897 10381431 8664543 8543604
3898 10340526 8612972 8493448
3899 10015591 8586869 8462972
3900 10004391 8550928 8434907
3901 10039896 8574106 8448449
3902 9973239 8567487 8452274
3903 9738205 8597569 8477794
3904 9341485 8617422 8493412
3905 9258496 8680746 8557868
3906 9071732 8718463 8598506
3907 8893419 8771325 8647261
3908 8686305 8835624 8712094
3909 8575436 8868283 8746664
3910 8567168 8891928 8770953
3911 8668118 8925990 8803746
3912 9240758 8903910 8783162
3913 9555812 8861334 8736922
3914 9531637 8842811 8720114
3915 9551183 8765791 8641440
3916 9714420 8731289 8605113
3917 9841454 8681056 8551000
3918 10156175 8640232 8519621
3919 10312856 8624876 8495397
3920 9993949 8593943 8470880
3921 9880068 8586358 8457633
3922 10036790 8557994 8433868
3923 9914621 8549678 8423602
3924 9388464 8587056 8465545
3925 9213778 8669704 8554229
3926 8970406 8719450 8595636
3927 8838802 8789770 8663292
3928 8741127 8848403 8730137
3929 8699145 8881110 8760546
3930 8662056 8915539 8797374
3931 8519384 8954505 8826959
3932 8748366 8924001 8799544
3933 8964261 8891390 8772899
3934 9221673 8869919 8745169
3935 9299728 8794866 8670581
3936 9425885 8734497 8610527
3937 9511639 8676238 8553186
3938 9586246 8643461 8513575
3939 9621590 8612742 8486309
3940 9846428 8596379 8471091
3941 9649578 8614747 8488099
3942 9203797 8642388 8520321
3943 9141900 8670617 8546367
3944 8846640 8700640 8573186
3945 8853832 8765453 8645349
3946 8642643 8802795 8682056
3947 8562449 8840678 8720171
3948 8551665 8902469 8781126
3949 8312987 8951763 8825166
3950 8261202 8966351 8846534
3951 8312894 8985757 8854023
3952 8730110 8932287 8814246
3953 8878857 8900549 8776049
3954 9274534 8859677 8733234
3955 9116085 8806033 8680499
3956 9005140 8730298 8605970
3957 8918153 8682618 8554899
3958 9392657 8637943 8508542
3959 9195997 8606874 8479175
3960 9257407 8596621 8476971
3961 9611263 8594726 8470419
3962 9438975 8600699 8475635
3963 9181668 8624471 8500772
3964 8833086 8663182 8546996
3965 8833185 8708353 8582413
3966 8628487 8766088 8649857
3967 8416315 8820717 8701799
3968 8222191 8906343 8783968
3969 7910413 8981744 8859190
3970 7921319 8984185 8866608
3971 8044131 8990488 8865501
3972 8395679 8962400 8834030
3973 8724497 8913432 8793445
3974 8773298 8873113 8742867
3975 8791695 8815696 8690190
3976 8854242 8755743 8625900
3977 8915208 8726831 8602934
3978 9077145 8678475 8553748
3979 9012165 8618151 8493601
3980 9198234 8595504 8466615
3981 9416672 8559164 8429434
3982 9064485 8572008 8447711
3983 8913794 8598110 8478595
3984 8706671 8639299 8516965
3985 8616246 8697234 8577353
3986 8423943 8743423 8628611
3987 8368568 8820137 8701193
3988 8117953 8847558 8724331
3989 7866007 8886007 8763924
3990 7858394 8932081 8808853
3991 7982872 8972507 8848674
3992 8272889 8942901 8823139
3993 8403757 8906495 8779682
3994 8502234 8846124 8721234
3995 8585067 8795077 8670273
3996 8823094 8740538 8605875
3997 8825120 8680710 8552473
3998 8992245 8633482 8511157
3999 9183663 8602091 8470031
4000 9289079 8587473 8460936
4001 9262436 8607137 8476362
4002 9118175 8614090 8484302
4003 9080229 8644192 8519477
4004 8512831 8678060 8552895
4005 8165566 8740944 8621052
4006 8048000 8796789 8681489
4007 8190781 8855782 8732126
4008 8073144 8926538 8804986
4009 8046459 8974505 8849583
4010 7789894 8973541 8851671
4011 7987140 8995790 8874630
4012 8148855 8985100 8859585
4013 8202110 8952510 8827640
4014 8438912 8926253 8797084
4015 8330598 8895994 8768942
4016 8562478 8835021 8707719
4017 8931861 8798626 8671988
4018 9265860 8735814 8610199
4019 9401851 8695322 8571164
4020 9346180 8693856 8575714
4021 9198277 8657577 8532280
4022 8917150 8643838 8524039
4023 8695828 8666892 8540752
4024 8405205 8734793 8610062
4025 8359459 8777365 8652362
4026 8395706 8850801 8729282
4027 8646938 8854671 8735510
4028 8446363 8896310 8774431
4029 8292899 8924198 8804494
4030 8127697 8928424 8801322
4031 8130366 8969125 8854517
4032 7991067 8981736 8857576
4033 8418286 8965436 8841423
4034 8787898 8941134 8817183
4035 9003067 8873731 8747486
4036 8990650 8795816 8667374
4037 8999575 8751903 8623292
4038 9116035 8681746 8549926
4039 9276193 8630120 8503977
4040 9219228 8625368 8497478
4041 9140255 8594124 8469380
4042 8952136 8596630 8468105
4043 8790806 8613206 8491746
4044 8379884 8696090 8573319
4045 8397191 8750021 8628466
4046 7881502 8800351 8677262
4047 7698401 8868432 8745746
4048 7796443 8875648 8751410
4049 8332778 8896009 8778855
4050 8266585 8921167 8797816
4051 7897225 8969142 8842840
4052 8013994 8920325 8796487
4053 8150174 8919527 8791920
4054 8534322 8883549 8754410
4055 9045764 8786858 8659150
4056 9126561 8700381 8571787
4057 8925004 8647933 8522167
4058 9050189 8591983 8469596
4059 8846751 8565115 8438821
4060 8829985 8557909 8432926
4061 9069474 8564910 8439811
4062 9150108 8595859 8472805
4063 9120685 8626590 8508634
4064 8768893 8661805 8538686
4065 8692583 8707961 8586933
4066 8495798 8760067 8640787
4067 8179562 8819763 8695740
4068 7959374 8885896 8765232
4069 8214633 8957452 8834953
4070 8048106 8956599 8834628
4071 7933002 8952921 8826999
4072 7944757 8956864 8829938
4073 8196276 8929816 8809962
4074 8522629 8917339 8788066
4075 8624299 8850403 8721962
4076 8890795 8797605 8674864
4077 8980443 8687810 8562081
4078 9209129 8622296 8497868
4079 9307065 8598113 8472241
4080 9437074 8592468 8470046
4081 9153222 8576474 8448881
4082 8800688 8589838 8467924
4083 8507548 8595419 8471756
4084 8756967 8647009 8523739
4085 8812521 8721572 8600578
4086 8530301 8770825 8651420
4087 8357730 8824309 8697058
4088 8080604 8869096 8749817
4089 7706394 8894879 8772566
4090 7817665 8926526 8804372
4091 7919097 8941759 8818641
4092 8041147 8925944 8796131
4093 8168876 8881890 8759255
4094 8386794 8873221 8748581
4095 8553615 8825086 8693124
4096 8979130 8751176 8622909
4097 9229802 8676617 8547323
4098 9366478 8607183 8479744
4099 9410161 8564134 8433659
4100 9464685 8564505 8439138
4101 9390908 8576410 8450948
4102 9090354 8573974 8453241
4103 8764091 8607205 8484668
4104 8522201 8615300 8496794
4105 8717854 8683712 8560260
4106 8526696 8722400 8600619
4107 8271031 8761012 8639846
4108 7940971 8831593 8707949
4109 7941737 8880777 8758772
4110 7948061 8926767 8805638
4111 7948983 8928061 8811562
4112 8295285 8899248 8776436
4113 8333443 8884105 8760367
4114 8566358 8852319 8727722
4115 8757361 8779135 8654844
4116 8970133 8741678 8613904
4117 8750406 8721533 8601703
4118 9179897 8707889 8578795
4119 9381095 8685297 8555567
4120 9310480 8630016 8496622
4121 9148499 8622708 8493759
4122 8892731 8586067 8462420
4123 9060582 8590719 8468822
4124 8751986 8635444 8515035
4125 8524894 8698395 8579219
4126 8033114 8736860 8616979
4127 7789220 8801935 8679651
4128 7507567 8865043 8744104
4129 7635873 8916621 8795200
4130 7984343 8955028 8828026
4131 8168620 8970842 8845659
4132 8349248 8937192 8817001
4133 8516593 8916333 8792414
4134 8918707 8867023 8745258
4135 8960697 8802846 8672242
4136 9190623 8727788 8604211
4137 9204107 8668014 8539592
4138 9402216 8616431 8491994
4139 9629635 8571486 8449415
4140 9765323 8529853 8400968
4141 9311707 8516540 8391421
4142 9006583 8542440 8420311
4143 8627336 8576774 8446448
4144 8481180 8623636 8497828
4145 8492398 8694936 8577988
4146 8205445 8778459 8654659
4147 8289344 8853251 8732902
4148 8081705 8893465 8771200
4149 7855562 8945036 8818030
4150 7695196 8980639 8854047
4151 7883954 9004601 8888231
4152 8027045 9009428 8885033
4153 8292016 8979471 8856026
4154 8376083 8969986 8838332
4155 8488508 8874927 8753066
4156 8894411 8823368 8690574
4157 8989360 8727129 8599337
4158 9348949 8652654 8525160
4159 9278911 8617453 8486423
4160 9192198 8574096 8448048
4161 9202142 8561799 8437044
4162 9075961 8585704 8459711
4163 8912890 8602442 8473670
4164 8831932 8627371 8504547
4165 8720881 8686621 8569278
4166 8254217 8766638 8642152
4167 8131312 8831644 8707783
4168 8066348 8878303 8754235
4169 8029096 8947022 8824946
4170 8164572 8987115 8862300
4171 8061368 8951582 8828492
4172 7939953 8942656 8821265
