0 7159977 8575582 8473707
1 7207699 8619850 8519107
2 6948795 8638523 8536296
3 6592777 8670337 8566619
4 6412074 8728791 8632505
5 6419053 8768280 8665460
6 6375405 8768115 8663821
7 6226416 8751552 8648015
8 6136879 8745254 8644522
9 6561317 8748303 8651722
10 6556753 8756591 8651951
11 6816722 8734662 8632260
12 7049909 8702820 8598155
13 7080079 8660901 8550493
14 7139125 8620793 8513512
15 7053836 8577085 8469393
16 7445321 8557403 8454223
17 7380705 8533478 8431481
18 7396432 8510540 8410100
19 6957874 8523719 8417834
20 6837274 8533857 8436765
21 6657176 8587462 8489524
22 6660531 8663210 8559913
23 6756597 8660737 8555072
24 6508587 8687730 8589662
25 6594757 8728867 8631674
26 6424495 8771672 8672535
27 6269263 8779900 8685576
28 6150708 8795038 8694483
29 6362378 8802271 8699685
30 6464278 8785162 8677499
31 6604483 8750740 8645919
32 6758947 8679675 8576255
33 6902765 8651018 8545264
34 6876696 8622496 8520309
35 6657927 8593897 8485026
36 7057532 8570407 8464964
37 7137634 8566955 8468182
38 7239930 8549109 8447488
39 7214503 8561174 8458088
40 7359004 8572858 8468561
41 7109593 8571531 8475053
42 6870741 8646567 8548857
43 6788513 8699729 8594311
44 6234874 8779197 8686036
45 6049798 8851119 8750170
46 5900311 8862008 8761643
47 5871591 8901911 8797481
48 6155121 8892536 8788853
49 6650460 8839777 8738111
50 6527430 8807736 8700591
51 6635845 8801987 8696052
52 6646330 8745796 8637758
53 6707320 8697616 8589295
54 6766618 8648130 8544607
55 7109599 8600888 8493848
56 7356469 8560017 8457719
57 7281326 8563996 8465584
58 7485173 8529451 8428893
59 7330851 8513910 8406712
60 7069228 8549556 8444098
61 6882430 8611012 8508473
62 6387166 8691940 8589132
63 6596254 8708695 8601134
64 6656237 8708819 8603547
65 6412621 8767449 8662443
66 6412360 8745329 8644988
67 6621708 8737078 8635682
68 6395243 8746730 8646001
69 6719363 8736692 8637428
70 6577580 8730730 8626958
71 6586431 8703498 8597347
72 7150692 8664046 8559842
73 7050301 8622962 8515384
74 6918777 8581520 8475983
75 7031811 8563764 8464431
76 7028320 8542269 8440567
77 7178903 8533374 8424722
78 7365794 8518264 8419206
79 6591931 8520205 8416812
80 6672755 8568662 8470088
81 6710046 8588253 8483833
82 6665066 8623016 8525313
83 6576385 8639595 8538723
84 6288958 8700793 8602132
85 6178720 8753520 8653582
86 6037534 8763784 8663994
87 5929564 8789704 8689293
88 5879435 8785483 8679948
89 6407680 8771482 8662719
90 6521096 8727616 8625049
91 6530530 8696218 8589859
92 6613037 8651047 8547644
93 6612980 8644147 8533682
94 7022183 8574532 8467106
95 7054129 8561268 8461176
96 7002598 8550598 8445090
97 6871609 8562408 8457714
98 7064707 8556089 8449364
99 7077452 8574534 8472480
100 7082791 8612865 8509078
101 6824354 8652967 8549053
102 6649269 8669710 8570269
103 6603547 8693227 8593063
104 6497969 8713509 8605125
105 6428451 8733652 8639975
106 6319808 8723432 8623689
107 6400884 8748660 8640636
108 6445938 8773378 8671446
109 6606669 8758301 8651902
110 6722933 8713803 8610759
111 6834996 8714396 8608104
112 6798362 8676099 8577484
113 6909418 8667158 8561305
114 6994216 8636072 8539243
115 6907310 8590257 8485936
116 6897206 8585028 8476093
117 6911235 8583948 8478457
118 7146745 8594387 8491904
119 6930672 8600723 8497008
120 6992589 8631227 8536033
121 6783711 8622029 8519677
122 6650104 8663737 8564603
123 6549506 8703587 8597842
124 6438141 8718012 8616868
125 6522320 8756452 8657830
126 6261210 8771765 8671229
127 6070642 8750240 8648485
128 5705609 8771373 8672008
129 6131351 8791259 8681919
130 6575041 8754957 8650913
131 6697276 8727714 8625402
132 6691365 8682767 8581974
133 6679155 8662641 8556616
134 6690642 8629341 8526724
135 6626250 8623997 8520757
136 7017920 8603410 8495984
137 7314104 8598334 8490811
138 7428109 8560955 8460142
139 6707575 8581947 8480028
140 6918022 8594531 8487245
141 7075939 8597548 8494875
142 6694968 8665475 8565521
143 6359546 8705781 8605583
144 6242654 8733431 8637108
145 6047458 8787276 8683877
146 6314963 8810577 8713177
147 6291373 8826765 8724724
148 6229752 8864134 8759282
149 6329806 8841652 8742228
150 6426483 8821498 8716056
151 6566719 8808057 8707524
152 6572180 8779957 8675781
153 7023033 8732451 8629698
154 7424143 8689458 8585667
155 7354467 8622574 8517200
156 7405234 8615956 8507738
157 7031681 8621008 8522164
158 7000448 8606082 8497229
159 6998691 8595778 8497205
160 7070630 8606157 8501995
161 6911294 8636670 8534110
162 6722337 8673353 8571252
163 6526638 8737414 8636282
164 6435957 8775140 8678781
165 6354869 8766558 8662381
166 6169318 8792831 8691487
167 6425083 8807239 8708540
168 6587842 8796072 8690685
169 6545366 8785312 8685038
170 6368010 8786982 8680776
171 6588210 8752631 8651553
172 6796568 8727557 8625690
173 6754494 8666486 8563195
174 6865414 8625479 8520943
175 6894995 8588219 8482855
176 6963828 8529858 8419726
177 6911005 8528316 8425072
178 6922428 8510372 8411679
179 6870031 8544617 8450044
180 7059854 8586158 8475192
181 6784734 8602952 8502097
182 6516550 8641209 8537237
183 6712593 8658922 8560437
184 6633318 8718263 8620324
185 6170300 8765843 8664189
186 5833906 8789557 8688671
187 6059840 8806453 8709917
188 5970018 8805373 8701851
189 6179018 8809745 8707077
190 6226391 8777877 8676122
191 6544551 8758093 8657349
192 6566064 8726599 8622880
193 6492105 8713707 8608327
194 6469583 8682000 8575582
195 6739639 8669019 8563585
196 6909028 8633735 8529875
197 6917648 8607255 8509035
198 6954673 8604036 8500370
199 6944268 8572409 8468103
200 7042619 8586067 8487261
201 6525416 8618167 8514869
202 6353010 8682772 8581439
203 6364101 8771351 8671463
204 6525554 8782990 8687257
205 6279481 8800486 8697308
206 5931663 8812261 8708522
207 5965445 8803595 8702377
208 6007456 8791648 8683739
209 6229382 8776171 8668947
210 6246576 8740366 8635130
211 6536671 8697960 8595929
212 6678651 8663528 8558575
213 6611669 8667616 8562642
214 6625102 8637686 8536725
215 6702543 8625809 8522095
216 6932595 8636090 8530476
217 6920284 8622600 8522290
218 7029754 8614145 8512972
219 6917988 8624349 8521941
220 6870576 8637126 8529656
221 6680948 8623801 8525106
222 6393138 8689342 8583436
223 6215797 8720105 8625340
224 6339202 8733119 8632564
225 6167409 8762061 8659555
226 5945099 8768084 8663907
227 6066872 8738326 8635242
228 6068705 8729693 8628941
229 6311455 8708536 8608110
230 6214956 8678404 8573549
231 6567854 8677774 8574612
232 6587561 8649481 8546394
233 6714155 8628379 8520305
234 6840258 8569613 8464571
235 6856868 8544600 8442850
236 7092157 8531195 8430217
237 7049633 8554018 8446606
238 7002538 8558664 8453287
239 6835622 8565183 8465686
240 6933796 8582052 8477611
241 6934330 8587550 8484364
242 6616548 8631099 8528271
243 6324663 8689409 8591234
244 6141847 8751009 8644707
245 5952905 8775474 8679222
246 6023428 8815636 8717012
247 5837719 8816219 8721561
248 5846867 8839886 8740212
249 6344991 8808466 8709585
250 6463747 8779728 8677287
251 6931200 8773326 8670316
252 6825906 8714229 8611822
253 6776311 8679733 8575518
254 6736030 8631930 8527454
255 7135256 8591623 8492953
256 7123701 8589949 8486670
257 7206604 8592621 8487560
258 7050967 8578364 8480997
259 6961781 8580907 8477742
260 6759295 8593401 8492042
261 6369769 8623830 8517270
262 6436755 8682346 8579443
263 6347011 8707934 8602977
264 6380637 8747024 8648318
265 6200053 8793535 8693382
266 6402559 8812181 8717891
267 6633539 8775524 8668963
268 6430022 8736088 8635257
269 6388421 8760499 8655199
270 6123195 8750241 8649128
271 6574279 8738488 8632455
272 6998657 8682909 8577791
273 7405948 8618540 8511443
274 7604718 8582880 8476471
275 7526088 8526620 8425111
276 7649910 8495968 8390082
277 7660104 8484603 8382861
278 7612022 8467779 8365611
279 7514827 8499007 8396142
280 7791132 8540107 8434175
281 7678459 8572757 8468219
282 7632645 8602486 8505205
283 7672993 8663596 8563704
284 7395178 8694471 8597685
285 7260611 8730894 8632193
286 7191495 8774145 8677380
287 7212911 8828255 8731338
288 6995944 8822612 8719075
289 7227475 8796164 8695310
290 7136966 8749550 8644846
291 7323708 8710489 8606502
292 6994900 8601895 8497718
293 7052773 8566809 8460159
294 6929522 8515878 8416982
295 6553448 8519554 8417281
296 6390259 8522382 8414332
297 6568468 8525733 8421970
298 6673099 8545295 8441695
299 6197763 8588234 8487343
300 5756461 8621206 8514590
301 5383531 8679555 8581527
302 5183120 8752244 8648463
303 5005338 8806976 8709168
304 4785401 8865235 8760300
305 4734767 8909578 8809294
306 4647121 8930783 8830750
307 4788687 8920769 8820628
308 4831566 8918916 8812586
309 5052442 8910935 8808066
310 4962671 8897241 8797455
311 5192522 8880880 8773578
312 5284852 8843963 8735504
313 5544070 8786285 8680487
314 5381794 8735339 8630063
315 5518287 8672811 8568055
316 5605313 8620801 8519288
317 5716349 8624656 8521479
318 5859251 8649050 8547944
319 5821834 8663251 8559186
320 5916612 8692375 8585960
321 6099385 8729201 8627294
322 6040714 8756273 8657288
323 6064668 8763746 8661300
324 5886409 8825400 8722644
325 5759977 8850949 8748947
326 5755546 8895452 8794475
327 5805709 8902256 8801463
328 5836616 8910963 8806908
329 6060807 8862433 8759366
330 5881044 8806556 8701303
331 6118870 8785045 8673828
332 6222011 8711739 8605503
333 6307168 8666476 8565521
334 6459413 8629959 8524428
335 6909613 8586778 8481394
336 7051545 8565567 8462381
337 6801100 8571657 8471398
338 6943832 8577942 8476854
339 6684943 8582862 8482021
340 6480047 8623851 8525254
341 6404197 8616572 8514436
342 6540197 8665388 8560845
343 6410204 8695398 8590394
344 6242822 8744257 8645159
345 6099597 8776322 8673655
346 6040527 8801144 8692304
347 6177859 8787807 8689429
348 6156059 8786564 8687269
349 6228861 8772355 8668946
350 6296165 8794318 8693468
351 6441238 8767888 8663708
352 6389800 8714296 8616272
353 6571811 8679077 8572368
354 6620932 8623128 8518750
355 6710745 8582063 8481271
356 7037450 8583921 8478500
357 6995834 8577434 8474507
358 7046091 8552839 8448684
359 6770812 8570511 8469752
360 6832691 8635283 8531729
361 6322587 8671316 8571233
362 6304629 8732081 8626570
363 6377136 8828172 8726490
364 6679478 8867704 8770100
365 6517919 8840137 8736528
366 5976710 8853251 8750559
367 5824516 8841577 8743555
368 5810239 8837668 8736839
369 6204952 8803023 8697934
370 6170603 8753099 8653502
371 6474424 8721842 8618279
372 6835081 8667682 8566568
373 6858713 8629203 8523692
374 6851063 8595833 8489388
375 6758535 8554338 8450646
376 6837401 8535822 8432761
377 6937192 8543395 8442843
378 6963691 8528430 8422233
379 6805586 8547146 8441971
380 6757736 8571895 8466291
381 6496023 8596423 8492959
382 6472306 8647324 8544693
383 6287210 8656436 8551474
384 6269714 8721815 8620074
385 6364288 8759700 8657662
386 6401153 8762755 8660845
387 6207898 8751924 8652576
388 6146787 8768486 8659435
389 6385179 8733872 8630078
390 6209772 8705381 8598673
391 6162912 8687141 8584685
392 6379177 8628814 8522765
393 6815915 8606058 8503685
394 7463800 8546932 8445163
395 7507731 8501165 8396269
396 7221684 8494282 8403178
397 7089368 8521019 8420759
398 7301920 8479283 8378317
399 7031665 8481450 8379217
400 6931802 8533249 8436958
401 6703881 8590104 8490227
402 7029905 8656330 8550360
403 6746833 8659863 8561435
404 6672670 8702597 8602684
405 6315532 8726354 8628571
406 5580888 8766062 8666515
407 5458630 8822269 8721895
408 5922707 8834055 8738723
409 6239705 8761685 8657184
410 6269159 8745425 8638283
411 6522788 8761591 8657455
412 6582819 8746896 8644430
413 6754619 8727410 8622146
414 6798761 8682419 8579376
415 6904002 8644193 8541737
416 7225856 8601254 8496432
417 7119277 8572104 8473103
418 7108872 8574986 8472226
419 6857683 8594514 8491350
420 6803503 8620242 8511189
421 6515604 8640634 8542278
422 6604270 8682148 8576782
423 6514798 8682748 8581034
424 6330053 8705469 8606415
425 6217592 8747091 8647927
426 6258476 8765704 8663325
427 6156016 8770082 8670513
428 6086275 8785992 8680302
429 6290262 8771417 8665971
430 6585751 8714595 8609381
431 6928040 8681181 8574939
432 6923478 8633947 8528511
433 6697988 8601314 8500880
434 6723978 8567658 8463604
435 6988021 8516913 8414313
436 7157086 8481926 8377002
437 7016134 8498438 8397836
438 7259503 8480609 8374523
439 7151456 8499339 8398182
440 6679622 8516115 8411021
441 6249108 8544076 8442565
442 6566902 8591583 8489714
443 6546216 8624972 8528980
444 6496964 8679168 8580930
445 6394947 8685197 8579041
446 6280818 8681257 8578468
447 6455900 8716680 8615046
448 6504650 8715828 8611716
449 6822767 8696035 8590139
450 6792639 8683484 8578375
451 7198833 8687766 8581380
452 7067843 8623036 8524367
453 6811231 8614892 8509650
454 6762368 8578274 8471991
455 7089963 8564564 8458023
456 7258602 8526282 8425257
457 7290770 8522995 8413761
458 7333492 8505120 8409623
459 7074903 8530609 8431560
460 6927564 8555404 8453602
461 6593565 8586459 8489086
462 6445777 8678472 8578499
463 6303607 8726090 8628419
464 6266296 8749352 8648312
465 6358999 8759986 8660546
466 6394777 8745685 8647998
467 6313438 8755013 8658920
468 6239792 8759133 8654986
469 6587909 8748569 8643853
470 6762023 8691218 8590175
471 6840769 8710921 8608184
472 6824934 8660579 8563136
473 7118247 8620471 8511957
474 7352546 8578392 8474756
475 7511947 8537642 8430973
476 7481782 8513082 8413499
477 7342801 8521593 8422520
478 7325341 8492287 8387421
479 7270051 8505244 8404452
480 7288371 8514393 8411019
481 6888523 8524141 8426128
482 6629806 8581660 8483489
483 6499786 8611870 8514366
484 6628781 8652444 8552916
485 6442342 8682443 8582162
486 6469972 8743157 8640509
487 6456293 8725032 8624833
488 6504308 8722175 8621242
489 6694118 8684478 8579910
490 6867503 8656457 8554735
491 7294739 8631731 8522957
492 7281788 8575045 8475361
493 7203251 8547418 8442135
494 7264618 8524800 8420006
495 7685987 8512338 8414602
496 7714349 8497006 8394019
497 7586627 8490982 8384452
498 7530821 8488145 8384802
499 7220174 8480249 8374648
500 8384042 8386116 8391268
501 7279476 8514657 8413000
502 7079020 8561290 8466464
503 6944651 8604142 8506946
504 6889067 8609912 8505656
505 6670872 8671715 8568490
506 6450281 8704700 8603233
507 6504732 8724783 8619516
508 6548122 8727365 8632438
509 7027026 8718124 8612797
510 7310338 8697363 8590878
511 7010800 8666358 8562920
512 7100544 8652521 8549162
513 7192813 8645525 8543732
514 7357231 8608921 8502229
515 7482863 8574334 8470916
516 7849220 8524621 8421783
517 7767500 8485344 8381054
518 7570909 8505288 8397400
519 7222690 8496827 8395807
520 6919957 8537323 8431219
521 6892512 8547090 8441731
522 6715858 8578624 8475535
523 6996388 8640849 8538922
524 7127604 8663106 8559824
525 6995612 8703385 8601398
526 6642783 8699501 8598070
527 6460326 8728639 8626316
528 6599290 8731394 8631561
529 6748870 8737462 8638752
530 6722243 8736881 8639331
531 6689817 8708984 8603735
532 7148142 8675008 8572785
533 7107323 8628876 8517169
534 7157787 8592735 8486146
535 7485801 8531340 8431067
536 7707881 8478028 8372172
537 7750066 8450616 8346616
538 7582715 8464752 8366076
539 7588172 8454652 8353891
540 7219322 8456694 8353653
541 7080582 8517824 8415517
542 6586240 8544267 8445723
543 6649930 8621281 8519550
544 6576524 8644600 8542730
545 6654849 8672033 8576887
546 6554542 8729993 8633753
547 6519644 8764322 8664120
548 6528811 8793024 8693630
549 6270643 8773956 8673895
550 6102490 8769031 8669696
551 6496011 8742468 8637027
552 6952108 8733089 8630619
553 6757699 8678856 8583697
554 6850098 8639941 8532785
555 7116984 8592512 8489036
556 7296445 8578121 8470528
557 7077323 8561058 8463828
558 6967648 8573755 8472060
559 6997438 8566997 8462388
560 7200738 8574428 8469339
561 7177688 8602454 8501333
562 6664226 8668841 8564539
563 6340419 8730065 8626738
564 6372654 8781464 8678169
565 6384338 8781768 8683177
566 6454257 8804963 8699866
567 6379704 8796812 8697601
568 6031487 8797634 8695910
569 6029690 8822325 8720230
570 6401028 8795858 8687179
571 6395823 8728474 8624771
572 6557333 8699090 8594431
573 6564672 8690223 8592755
574 6668108 8660505 8550858
575 6944940 8615401 8510992
576 6998064 8584852 8480625
577 6978574 8553937 8449264
578 6853033 8535746 8433565
579 6989471 8545120 8446642
580 6894252 8562621 8460560
581 6928749 8565446 8461662
582 6601364 8586017 8486870
583 6348984 8646692 8542953
584 6063656 8681397 8580666
585 6020091 8716678 8611020
586 6007619 8783467 8683463
587 6149270 8808527 8709354
588 6324223 8813581 8712625
589 6233965 8813655 8717134
590 6239677 8793333 8690420
591 6256756 8757578 8649587
592 6444544 8722296 8623295
593 6594120 8664497 8563547
594 6807754 8627219 8526010
595 6860036 8599798 8496474
596 7016591 8577473 8471430
597 7197477 8569176 8465141
598 6972917 8565121 8461512
599 7217883 8604118 8499596
600 6984769 8603556 8503697
601 6636246 8627810 8526317
602 6192017 8686756 8583013
603 6238592 8716770 8617415
604 6233491 8754409 8653403
605 6045136 8809476 8709203
606 5930964 8823085 8724967
607 5815672 8831112 8735083
608 5819228 8842956 8739201
609 5962086 8849485 8742483
610 6117395 8831565 8728817
611 5970941 8793640 8691286
612 5951581 8794515 8691798
613 6108316 8804373 8700100
614 6242472 8794108 8690389
615 6457222 8719379 8615320
616 6887691 8656200 8552637
617 7238855 8626235 8521041
618 7167105 8609719 8511740
619 7406834 8576809 8474674
620 7180214 8588915 8494249
621 7062007 8597075 8497961
622 6763082 8602679 8501584
623 6578350 8669058 8568574
624 6394911 8728502 8630803
625 6226566 8763776 8664992
626 5907771 8799859 8697362
627 5949474 8799284 8696463
628 6111019 8833476 8733047
629 6100806 8849454 8752190
630 6185629 8836953 8731268
631 6358444 8801824 8707932
632 6511687 8786604 8682232
633 6338564 8744665 8638072
634 6315639 8703815 8600984
635 6404134 8654900 8547757
636 6721925 8620126 8512975
637 6792091 8592168 8490161
638 6845888 8573980 8476077
639 7060832 8558669 8459160
640 6861523 8579838 8484977
641 6402934 8604069 8501442
642 6158149 8627551 8529213
643 6106103 8691184 8598823
644 5925018 8740447 8638998
645 6037967 8791885 8688393
646 6071634 8810778 8706089
647 6060545 8813120 8711184
648 5988067 8835811 8732127
649 5769953 8832084 8728581
650 5915245 8808840 8709554
651 6045237 8785534 8685068
652 6372240 8777116 8674108
653 6483932 8727915 8620682
654 6531818 8685302 8587934
655 6536575 8653423 8550437
656 6595292 8622710 8518956
657 6646284 8603519 8498571
658 6789041 8585924 8481304
659 6948595 8570145 8467339
660 7056270 8561065 8463937
661 6832457 8578822 8478213
662 6574195 8625305 8531020
663 6232453 8703223 8601024
664 5929738 8759135 8659437
665 5953545 8806205 8707507
666 5962121 8820769 8719994
667 5758049 8816211 8713623
668 5685717 8824542 8723241
669 5752327 8824349 8719297
670 6096289 8813572 8711964
671 6155661 8778995 8679778
672 6362226 8739758 8636450
673 6071669 8704354 8599849
674 6421762 8678977 8572814
675 6692970 8655424 8548970
676 6852724 8622040 8519134
677 6873545 8579997 8473443
678 6767282 8579736 8478602
679 6748067 8590938 8484925
680 6607237 8615489 8513943
681 6653737 8635720 8531634
682 6401371 8649007 8550342
683 6404359 8680131 8576799
684 6465017 8678662 8580303
685 6252918 8728977 8629780
686 6035985 8769433 8664594
687 6008627 8810156 8709388
688 5963414 8824127 8721132
689 6318178 8859483 8756046
690 6553281 8805828 8705792
691 6206350 8786122 8688056
692 6253986 8732303 8631704
693 6257617 8673385 8570145
694 6535445 8655489 8551678
695 6467122 8614617 8511701
696 6693534 8579481 8473646
697 6746487 8583018 8471265
698 6790608 8570293 8463940
699 6747192 8568568 8466312
700 6575595 8589035 8487073
701 6627675 8606974 8499281
702 6175821 8668225 8569277
703 6011106 8704334 8599981
704 6053814 8734069 8633398
705 6208055 8733567 8636248
706 6307914 8770965 8665833
707 6082213 8796755 8697436
708 6193078 8814859 8716328
709 6231415 8806300 8703398
710 6491071 8774719 8674988
711 6371802 8754805 8647406
712 6482831 8746220 8638776
713 6476719 8741538 8637267
714 6410536 8734314 8631161
715 6350826 8689600 8585796
716 6505520 8664572 8558730
717 6586743 8645909 8537690
718 6555036 8642664 8539538
719 6403129 8641521 8540655
720 6482523 8630903 8528200
721 6446263 8639731 8531007
722 6211780 8663728 8564459
723 6033254 8698359 8594120
724 6159111 8737332 8635730
725 6273713 8780969 8677045
726 5914314 8817942 8711825
727 5661255 8828038 8735078
728 5645061 8846764 8745926
729 5737359 8830622 8725630
730 5993521 8822688 8720691
731 6289298 8787954 8680986
732 6558949 8769565 8661357
733 6357529 8721757 8616659
734 6464919 8684112 8580930
735 6571622 8662721 8557804
736 6492337 8658425 8550284
737 6872127 8590896 8483700
738 6720730 8569830 8465164
739 6629841 8562759 8456165
740 6450265 8585261 8480378
741 6283695 8614860 8515866
742 6178077 8658308 8561001
743 6565905 8713767 8613208
744 6209163 8728176 8625459
745 5753047 8769079 8664915
746 5444257 8792273 8691936
747 5413408 8840908 8741328
748 5736882 8844968 8741426
749 5960997 8849678 8745781
750 5928478 8829269 8728193
751 6040293 8820407 8716268
752 6561258 8819335 8711698
753 6659953 8765754 8664035
754 6586900 8705691 8605183
755 6520355 8692332 8587267
756 6633595 8639242 8531582
757 6876352 8601978 8497755
758 6563889 8600942 8501902
759 6538255 8651752 8546211
760 6654526 8646858 8544241
761 6675948 8650631 8551734
762 6253299 8687654 8588793
763 5910078 8744472 8644233
764 6142546 8770649 8666873
765 6164739 8774221 8672409
766 5685460 8788534 8691466
767 5462539 8829816 8727372
768 5569311 8844798 8741258
769 5610311 8834833 8734237
770 6066209 8816362 8714938
771 5913907 8795001 8694040
772 6294844 8751193 8651871
773 6430358 8702599 8594385
774 6619522 8675542 8570323
775 6662128 8645340 8547346
776 6561314 8603219 8497020
777 6390847 8596607 8492321
778 6601073 8607694 8506141
779 6447789 8606473 8510326
780 6385869 8614914 8513869
781 6187569 8618733 8516432
782 6131509 8640712 8542526
783 6101458 8679040 8580609
784 5994279 8721304 8616698
785 6099099 8757636 8655305
786 5910266 8756028 8651372
787 5780950 8783102 8677774
788 6039916 8770784 8667457
789 6030005 8739294 8635157
790 5882605 8739408 8637248
791 6120345 8749447 8642817
792 6471680 8722872 8620207
793 6348011 8686910 8584112
794 6779742 8627649 8522800
795 6737763 8621987 8522829
796 6728902 8601663 8498151
797 6738670 8576223 8473776
798 6916516 8518131 8411435
799 6889200 8521235 8423828
800 6985336 8549307 8445961
801 6749196 8578042 8477326
802 6727952 8618072 8522917
803 6753997 8671644 8573139
804 6277283 8696950 8596492
805 6245115 8749814 8648230
806 6085178 8756194 8659853
807 5866982 8784790 8685510
808 5592241 8832131 8732310
809 5746622 8838197 8735852
810 5924525 8825021 8723447
811 6494574 8791416 8692705
812 6747067 8747258 8644793
813 6718329 8740851 8637995
814 6905992 8742945 8647027
815 6977351 8730640 8630533
816 6636713 8663642 8556781
817 6343245 8622913 8518526
818 6351155 8634344 8532931
819 6286105 8628295 8521847
820 6380230 8646589 8540419
821 6255572 8665513 8563252
822 6070856 8684677 8583278
823 6071006 8714623 8609961
824 5762721 8767242 8674601
825 5817581 8778206 8675369
826 5989097 8793013 8695134
827 5756631 8829688 8724858
828 5758583 8814907 8713966
829 6093320 8796833 8695558
830 6545356 8789552 8687174
831 6742080 8743963 8641995
832 6470455 8715139 8609125
833 6301610 8679568 8579058
834 6266058 8655701 8546043
835 6300173 8615451 8511749
836 6362806 8600605 8494828
837 6398235 8583534 8479275
838 6363270 8587237 8485483
839 6441566 8602825 8501553
840 6306916 8616865 8517272
841 6320538 8629546 8524934
842 6033350 8663577 8568770
843 5841928 8706861 8607450
844 5789864 8717880 8616147
845 5996984 8758286 8661358
846 6095225 8762729 8663780
847 5765626 8794762 8692209
848 5467164 8818275 8712003
849 5864500 8798439 8693399
850 6056778 8756492 8653361
851 5840096 8769423 8659464
852 6263478 8758311 8660083
853 6497666 8720506 8613188
854 6160108 8699141 8597214
855 5970142 8636156 8531780
856 6477207 8594653 8492041
857 6891093 8573030 8463820
858 6773562 8563541 8459205
859 6181232 8562892 8459432
860 6087812 8590488 8490064
861 6102206 8617761 8510239
862 5816675 8658148 8567114
863 5695619 8765454 8668800
864 5768473 8829293 8730442
865 5789100 8853482 8752817
866 5418502 8886261 8787308
867 5505930 8887941 8786498
868 5671089 8907474 8807071
869 5553585 8918003 8814363
870 5889876 8872574 8766813
871 6087632 8827459 8723178
872 6464858 8790518 8692477
873 6512938 8739903 8637655
874 6703028 8708546 8603626
875 6735689 8659435 8553599
876 6729250 8658935 8554294
877 6724360 8620587 8518736
878 6648097 8643574 8536511
879 6562025 8638256 8532321
880 6262770 8641770 8542182
881 6300856 8631797 8533380
882 5999428 8666976 8563238
883 5968124 8713781 8617043
884 6027446 8750437 8650859
885 5788684 8779123 8676915
886 5720830 8822506 8717851
887 5934596 8830948 8730349
888 5605190 8819386 8716578
889 5928374 8824228 8721700
890 6078627 8816131 8711872
891 6043677 8783251 8679530
892 5904237 8773296 8669449
893 6207126 8734344 8629448
894 6383065 8715390 8617882
895 6412831 8677426 8573678
896 6684476 8659213 8557023
897 6617043 8643736 8537707
898 6575861 8620516 8516063
899 6687031 8615339 8511746
900 6465671 8638836 8532450
901 6418166 8680674 8585509
902 6043936 8715482 8614918
903 5963833 8762923 8655840
904 5882787 8778821 8678182
905 5964029 8791816 8686891
906 5844320 8810518 8710843
907 5829702 8816338 8715242
908 5754205 8811095 8711713
909 5892515 8799592 8696187
910 6151852 8791560 8692333
911 6376879 8757296 8656257
912 6727721 8724954 8624130
913 6931777 8698280 8595674
914 7340975 8669789 8567050
915 7488973 8636362 8537376
916 7774157 8577434 8471066
917 8060115 8535484 8439810
918 8108665 8533735 8430558
919 8579520 8509201 8410425
920 8026874 8530339 8431386
921 7425820 8570104 8471160
922 7087307 8590605 8489815
923 7477600 8638678 8533245
924 7327558 8677224 8573775
925 7288533 8692930 8592019
926 7199654 8707256 8603574
927 7109083 8715089 8612816
928 6904649 8708280 8603516
929 7233135 8710892 8607861
930 7476086 8694795 8592002
931 7120001 8694293 8595975
932 7230539 8638182 8531445
933 7129365 8611511 8510394
934 6515319 8599297 8497896
935 5948483 8589303 8486101
936 5667664 8613732 8513152
937 5881072 8613723 8510625
938 5868162 8635505 8523860
939 5545160 8649323 8554337
940 5106426 8668088 8570941
941 4949104 8703153 8601879
942 4591604 8751914 8661810
943 4599220 8830689 8740844
944 4281929 8857512 8759221
945 4152178 8885555 8780009
946 3947721 8915498 8811807
947 3850540 8941368 8835890
948 3830492 8937754 8828823
949 4014653 8948780 8844762
950 4172793 8926195 8815384
951 4354688 8879712 8777729
952 4776568 8866451 8758600
953 4874801 8811116 8709717
954 5047931 8747582 8639443
955 4925471 8706966 8600666
956 5308199 8712799 8610890
957 5207952 8686428 8583891
958 5430728 8701601 8596432
959 5410691 8691709 8590326
960 5500841 8681987 8584042
961 5595244 8724734 8626431
962 5604020 8728729 8624253
963 5511350 8750929 8653380
964 5180776 8795796 8696346
965 5236118 8826220 8724757
966 5143199 8845528 8748480
967 5364079 8855180 8748462
968 5430000 8841776 8737425
969 5531690 8837950 8737662
970 5856267 8822667 8719192
971 5806768 8798810 8691864
972 6206172 8763619 8659010
973 6139870 8726917 8619121
974 6291248 8669835 8566047
975 6165728 8670452 8568191
976 6477293 8624845 8521165
977 6447850 8608838 8505433
978 6465732 8586523 8482455
979 6343394 8573696 8471814
980 6219698 8604451 8495707
981 6490483 8617549 8519495
982 6428355 8631099 8532876
983 6359256 8691538 8594964
984 6114068 8733540 8630234
985 5898749 8754403 8655949
986 5694066 8813888 8710913
987 5708325 8814551 8712155
988 5501452 8795531 8692728
989 5759603 8790535 8686439
990 5978664 8764783 8668854
991 6041641 8739694 8640379
992 6100890 8756913 8649419
993 5971948 8712109 8610002
994 6201602 8683356 8575532
995 6289973 8642318 8537274
996 6395161 8603034 8498786
997 6486707 8573233 8470276
998 6933649 8571224 8463483
999 6467203 8544484 8440492
1000 6297659 8590657 8491979
1001 6383936 8652607 8552547
1002 6331236 8710513 8612085
1003 6261348 8725172 8623960
1004 6222499 8742550 8637202
1005 6313883 8756442 8652318
1006 6332082 8775063 8669728
1007 6374617 8777109 8674954
1008 5961462 8771767 8670895
1009 5804976 8800758 8700043
1010 5769448 8810738 8707172
1011 5773803 8787727 8689441
1012 6139961 8759891 8656389
1013 5951241 8724486 8624297
1014 6377220 8712114 8616146
1015 6618558 8680409 8577243
1016 6786677 8618931 8514687
1017 6439366 8599885 8499175
1018 6561152 8624022 8519520
1019 6440657 8608315 8501889
1020 6139897 8609440 8505924
1021 6053132 8639897 8533789
1022 5910912 8686142 8587018
1023 6214537 8718266 8618757
1024 5818569 8746224 8644514
1025 5765966 8805656 8709501
1026 5726719 8828779 8729467
1027 6041889 8831900 8727082
1028 6414061 8783692 8680399
1029 6012215 8760021 8662711
1030 6419340 8725713 8624907
1031 6182661 8711726 8607080
1032 6220834 8731296 8628376
1033 6171053 8694502 8599356
1034 6102921 8712831 8611720
1035 6190162 8669209 8565280
1036 6572380 8654377 8551795
1037 6582462 8622048 8524706
1038 6606250 8637272 8533243
1039 6680076 8606728 8501938
1040 6696230 8608885 8506281
1041 6507695 8621688 8517217
1042 6406335 8629044 8539122
1043 6029455 8660829 8565900
1044 6176199 8700102 8601503
1045 6357301 8706623 8607965
1046 6114793 8719451 8617145
1047 6060891 8740447 8640734
1048 5909137 8765973 8664100
1049 5711605 8749422 8646449
1050 5954788 8752552 8647098
1051 6341998 8726335 8622078
1052 6524505 8734088 8630979
1053 6373940 8681920 8574893
1054 6604471 8651804 8551508
1055 6719220 8624463 8516150
1056 6517833 8598288 8492929
1057 6330593 8622837 8519375
1058 6675187 8617496 8512648
1059 6470671 8612788 8512336
1060 6424265 8625753 8525804
1061 6387312 8651859 8542213
1062 6211884 8656733 8557657
1063 6372284 8724791 8629906
1064 5866319 8770205 8667203
1065 5842250 8798626 8695965
1066 6124286 8797243 8697421
1067 6217464 8783614 8687962
1068 6186160 8784037 8679495
1069 6219092 8766186 8665238
1070 6076118 8743824 8641867
1071 5902060 8733321 8628532
1072 6293906 8706855 8602974
1073 6422826 8680842 8572221
1074 6719397 8655398 8560379
1075 6704188 8618795 8510101
1076 6884872 8579258 8476907
1077 6968450 8566249 8461433
1078 6920934 8552538 8450003
1079 6557814 8569697 8467428
1080 7130252 8599563 8495726
1081 6781710 8610558 8512863
1082 6657252 8615266 8516049
1083 6424363 8671936 8567869
1084 6396950 8705793 8602795
1085 6378779 8706085 8603734
1086 6373562 8737286 8635711
1087 6045072 8759414 8658004
1088 6012419 8783478 8677455
1089 5809435 8773343 8667373
1090 5958562 8747743 8645820
1091 6083028 8734407 8636605
1092 6324794 8681350 8585188
1093 6403467 8648097 8547608
1094 6984273 8601706 8500065
1095 7118127 8569619 8462303
1096 7059921 8524033 8420116
1097 7118811 8529332 8431840
1098 7405476 8565423 8462158
1099 6958668 8599951 8495847
1100 6726381 8628615 8525207
1101 6360839 8673130 8571304
1102 6596370 8689078 8587424
1103 6377257 8704982 8601804
1104 6394822 8711694 8610297
1105 6285716 8732201 8633687
1106 6133934 8746997 8647053
1107 6119591 8743715 8641937
1108 6247288 8743829 8641905
1109 6369576 8711944 8607674
1110 6478398 8689812 8583593
1111 6421190 8680443 8579226
1112 6815620 8667239 8562592
1113 6696640 8655271 8563812
1114 6762164 8630906 8533862
1115 6941523 8592213 8487990
1116 7135364 8577870 8483041
1117 6789078 8585272 8485824
1118 6764548 8572083 8469200
1119 6660091 8582560 8480904
1120 6783746 8608147 8506204
1121 6522638 8625005 8525301
1122 6378362 8630905 8532969
1123 6522113 8666237 8566301
1124 6544189 8709339 8613319
1125 6798174 8721868 8623131
1126 6395986 8733862 8629683
1127 6006785 8726665 8622681
1128 6243664 8724496 8620042
1129 6446212 8734128 8627875
1130 6414555 8699609 8595488
1131 6466359 8690839 8590611
1132 6894740 8661620 8557812
1133 7042082 8632697 8529453
1134 6871737 8606195 8501289
1135 6944457 8583191 8479344
1136 7099580 8553327 8448248
1137 7121064 8555409 8454010
1138 7233696 8553263 8455387
1139 6876065 8562693 8459747
1140 7036947 8573944 8472032
1141 6853290 8589019 8493035
1142 6507184 8634948 8536305
1143 6466597 8659269 8560451
1144 6644630 8698120 8596327
1145 6677943 8717894 8616929
1146 6673171 8739505 8638657
1147 6901647 8750165 8646681
1148 6135129 8745916 8641105
1149 6337815 8735776 8631853
1150 6469230 8736742 8636660
1151 6784506 8723735 8623360
1152 6802621 8705871 8606273
1153 6906375 8646401 8542705
1154 6904962 8605213 8499968
1155 7293262 8567055 8462529
1156 7604315 8498626 8395033
1157 7364360 8475521 8374685
1158 7551529 8465047 8362147
1159 7115583 8463353 8367556
1160 6797000 8501385 8401747
1161 6698914 8532373 8426632
1162 6683370 8575454 8480862
1163 6778856 8647684 8546580
1164 6406114 8681306 8585249
1165 6447468 8755904 8661879
1166 6437694 8773876 8675704
1167 6777585 8790291 8691105
1168 6512097 8811948 8719282
1169 6429767 8799819 8699663
1170 6671534 8782042 8677419
1171 6614149 8753454 8655948
1172 6879054 8719877 8612030
1173 7190683 8703030 8594679
1174 7264084 8661390 8560796
1175 6986751 8613664 8507921
1176 7148933 8577085 8475688
1177 7349726 8547561 8445003
1178 7740071 8527192 8428646
1179 7886804 8494178 8394001
1180 7577185 8488975 8386822
1181 7640211 8519854 8426071
1182 7549308 8540962 8441938
1183 6691022 8617758 8518898
1184 6423474 8700956 8596416
1185 6074552 8779914 8684523
1186 6017695 8819626 8725673
1187 5959910 8885174 8782172
1188 5784634 8937932 8840869
1189 5969288 8948015 8845717
1190 6282579 8920183 8821091
1191 6167941 8890173 8789156
1192 6221228 8858687 8751831
1193 6181650 8816881 8710635
1194 6721228 8751472 8652775
1195 6821252 8681815 8579558
1196 7180672 8636791 8530843
1197 7169643 8549736 8446532
1198 7190973 8519754 8414178
1199 6944837 8506479 8403138
1200 6580138 8520769 8417142
1201 6252387 8574738 8471274
1202 5956579 8645999 8549113
1203 6210048 8690579 8598244
1204 6501326 8757153 8655576
1205 6413335 8789679 8688352
1206 6145184 8852386 8752671
1207 6184371 8878441 8782434
1208 6013802 8863033 3909527
1209 5954463 9014055 8918714
1210 6092774 8986006 8889191
1211 6185710 8947381 8840821
1212 6278355 8886113 8783346
1213 6331195 8858165 8760391
1214 6632655 8818453 8715585
1215 6904357 8749333 8642339
1216 6772635 8667488 8566039
1217 6938643 8623425 8521253
1218 7129880 8592973 8487837
1219 6955914 8555686 8453396
1220 6859416 8562165 8464122
1221 6468905 8583099 8482959
1222 6387240 8640289 8542628
1223 6440679 8678993 8582197
1224 6218594 8724602 8626715
1225 6118865 8779019 8675985
1226 5961851 8821101 8729018
1227 5778380 8892274 8798824
1228 5718350 8944440 8847728
1229 5892369 8984071 8883435
1230 6335660 8942355 8842242
1231 6464602 8879552 8778632
1232 6569260 8830344 8727016
1233 6515631 8791101 8685269
1234 6792405 8754939 8656001
1235 6782104 8700301 8592537
1236 6873403 8668592 8569914
1237 6991451 8607910 8507156
1238 7092006 8565495 8460448
1239 7041022 8541535 8445369
1240 6806887 8564292 8464401
1241 6605453 8594232 8499743
1242 6254483 8656616 8564787
1243 6156982 8745260 8644321
1244 5911336 8817674 8717851
1245 5788328 8862621 8762524
1246 5468713 8895216 8796553
1247 5367437 8963393 8866883
1248 5537769 8985677 8887826
1249 5579221 9020714 8924573
1250 5721513 9048472 8948111
1251 6212063 9020475 8911998
1252 6479241 8979993 8882251
1253 6435965 8934227 8843227
1254 6423572 8865487 8768248
1255 6880962 8792592 8692999
1256 6901225 8735364 8629464
1257 6639502 8680312 8578297
1258 6905231 8631522 8532166
1259 6806127 8609713 8502088
1260 7025635 8595917 8492386
1261 6911832 8600003 8504376
1262 6598580 8669832 8578767
1263 6528319 8764450 8669835
1264 6433641 8841857 8742714
1265 5959197 8902063 8810732
1266 5709245 8938246 8842266
1267 5575828 8955037 8857623
1268 5540227 9013910 8919754
1269 5432735 9020930 8920498
1270 5772524 9012129 8915972
1271 6019313 8987471 8886069
1272 6630767 8893366 8792091
1273 6538257 8819129 8714117
1274 6511785 8752515 8653394
1275 6899590 8704520 8602608
1276 7260434 8644699 8546104
1277 7351282 8615090 8507861
1278 7241158 8590667 8487611
1279 7100395 8547327 8439993
1280 6735529 8562581 8457306
1281 6434391 8581760 8481621
1282 6503949 8618599 8524806
1283 6280818 8664968 8564356
1284 5859082 8741418 8645593
1285 5634202 8837691 8737514
1286 5638099 8903696 8803233
1287 6160375 8925078 8826682
1288 5932170 8947790 8848568
1289 5866828 8931088 8835701
1290 6032944 8894398 8796024
1291 6162189 8850215 8748927
1292 6198885 8803224 8696603
1293 6357210 8762504 8660111
1294 6935883 8727335 8622207
1295 7401628 8651629 8550142
1296 7567759 8612659 8510144
1297 7362149 8591248 8500490
1298 7167724 8593471 8491210
1299 6946414 8572751 8480000
1300 6894190 8585224 8481300
1301 6814942 8617831 8521823
1302 6432271 8689366 8594602
1303 6281535 8769939 8674171
1304 6167688 8856995 8765631
1305 6246688 8904905 8804144
1306 6154309 8901824 8804393
1307 6243893 8931018 8828630
1308 5623183 8930576 8837950
1309 5621453 8949879 8850196
1310 5737111 8948482 8847991
1311 6100378 8928802 8828769
1312 6538689 8897753 8799366
1313 6690262 8878029 8776201
1314 6725904 8835752 8733003
1315 6778205 8758642 8658892
1316 7132880 8710201 8607003
1317 6911949 8677140 8570261
1318 7041256 8629743 8533481
1319 7131362 8573992 8466755
1320 7185847 8582721 8474255
1321 6824374 8583609 8480478
1322 6262633 8632867 8533894
1323 6324213 8699667 8595073
1324 6224906 8747098 8651087
1325 6022926 8797610 8698014
1326 5855600 8818723 8729012
1327 6069683 8869786 8769245
1328 5930036 8893618 8791940
1329 5995361 8895884 8794428
1330 5868291 8893072 8793475
1331 6177882 8915770 8815487
1332 6439380 8860782 8754927
1333 6585210 8809587 8704763
1334 6927008 8758177 8654914
1335 7270988 8663041 8556412
1336 7703854 8601941 8498823
1337 7386193 8557208 8452712
1338 7295788 8547324 8447285
1339 7175528 8536553 8435793
1340 7284884 8552176 8455139
1341 6852609 8574992 8473469
1342 6667184 8647339 8553386
1343 6608311 8684844 8589339
1344 6584224 8730466 8631760
1345 6391502 8809180 8703695
1346 6175913 8826408 8735903
1347 5771568 8905627 8806833
1348 5553994 8938087 8841084
1349 5515987 8965604 8862835
1350 5786236 8952028 8851146
1351 6218598 8911116 8811836
1352 6622316 8884024 8781799
1353 6982872 8834134 8734540
1354 7213484 8749423 8643297
1355 7179013 8681106 8577137
1356 7174881 8655707 8554827
1357 7050808 8612991 8507634
1358 7134219 8576940 8476090
1359 6642380 8597398 8503494
1360 6873169 8608597 8509766
1361 7043139 8643446 8549741
1362 6426905 8681575 8587375
1363 6344246 8754405 8657234
1364 6073274 8793989 8695228
1365 5827658 8862126 8765131
1366 5734953 8966589 8874570
1367 5912312 8990438 8892387
1368 5575507 8989598 8883582
1369 5796045 8961032 8860161
1370 5875755 8932041 8832750
1371 6189730 8934111 8832184
1372 6542020 8909609 8806098
1373 6799549 8846569 8743847
1374 6844332 8792085 8692907
1375 6949547 8727755 8622424
1376 7238013 8684076 8580220
1377 7182055 8644105 8539398
1378 7320865 8613917 8509449
1379 7183574 8582707 8483281
1380 7236107 8599358 8496484
1381 6860052 8607515 8507619
1382 6522210 8658409 8554632
1383 6624980 8731660 8634570
1384 6142904 8804267 8710115
1385 5756509 8880967 8782148
1386 5730594 8962289 8864560
1387 5823414 9006290 8907973
1388 5618974 2127074 0
1389 5870194 1467522 0
1390 6045735 9505314 9398198
1391 6246199 9308838 9209090
1392 6586542 9150903 9041800
1393 6824530 9018922 8924136
1394 7010828 8925709 8820824
1395 7120005 8827966 8727586
1396 7428050 8716158 8610974
1397 7245357 8650137 8548264
1398 7389566 8641177 8542849
1399 7200843 8625653 8524975
1400 7188556 8606471 8503570
1401 6962220 8642820 8546637
1402 6730560 8743622 8643837
1403 6550373 8763109 8664273
1404 6345353 8775411 8684160
1405 6279621 8868290 8775286
1406 6035139 8924882 8824167
1407 5898615 8966943 8874130
1408 5654276 8982434 8886957
1409 6291496 9024250 8925250
1410 6778335 9008960 8906828
1411 6808037 8988093 8889819
1412 6908867 8924257 8821167
1413 6906860 8860889 8763304
1414 6823942 8837776 8738297
1415 7362829 8841477 8741307
1416 7541430 8796309 8692583
1417 7316615 8765693 8662063
1418 7408256 8686047 8584518
1419 7282137 8625373 8523107
1420 7016744 8630852 8528794
1421 6689297 8631284 8532843
1422 6500547 8685403 8587407
1423 6415269 8729719 8630350
1424 6159381 8813744 8715114
1425 6144851 8873972 8773737
1426 5981625 8931080 8836673
1427 6354395 8974726 8879835
1428 6077820 9003009 8908337
1429 6140385 9021153 8919202
1430 6202304 9005093 8906786
1431 6247712 8984219 8884607
1432 6474079 8934447 8833351
1433 6107643 8886440 8784090
1434 6615579 8839733 8735976
1435 7136425 8772968 8670254
1436 7578561 8699661 8593788
1437 7542770 8633639 8534750
1438 7332575 8602159 8498704
1439 7104024 8577584 8480361
1440 6839625 8601866 8503447
1441 6846419 8675109 8575071
1442 6657761 8705810 8611055
1443 6466174 8767846 8664143
1444 6446117 8816757 8722076
1445 6317957 8885463 8789587
1446 6117446 8959813 8862647
1447 6178557 8979223 8879638
1448 5794740 9009980 8912063
1449 5901911 9022049 8924601
1450 5952332 9053442 8954587
1451 6143944 9062926 8965558
1452 6604875 9029957 8931340
1453 6737601 8991995 8891362
1454 6881047 8931777 8828426
1455 7220655 8820800 8717970
1456 7638316 8746173 8644794
1457 7448706 8672208 8567034
1458 7484926 8631809 8530413
1459 7426397 8616185 8517232
1460 7232534 8623106 8521908
1461 6953898 8635083 8539441
1462 6583570 8698785 8599771
1463 6233598 8779074 8684268
1464 6199547 8898156 8806410
1465 6017793 9001444 8914835
1466 5681162 9080875 8984866
1467 5786520 9103887 9004906
1468 5977007 9135273 9039434
1469 6194794 9128373 9030516
1470 6117758 9100141 9001058
1471 6455499 9051453 8948581
1472 6618231 8995422 8896675
1473 6508682 8975157 8878336
1474 6754708 8909422 8805532
1475 7157797 8833016 8729431
1476 7300801 8759701 8658126
1477 7203384 8693931 8592258
1478 7312690 8656064 8556840
1479 7204408 8644254 8544515
1480 7224024 8639409 8537719
1481 6983500 8664701 8563410
1482 6710246 8715125 8618245
1483 6338606 8775316 8680731
1484 6218027 8833652 8737517
1485 6066315 8926846 8830991
1486 5807305 8981885 8881285
1487 5997373 9000622 8903568
1488 5844377 9059558 8957051
1489 6008339 9057268 8959559
1490 6230212 9047113 8951066
1491 6592811 9050625 8954252
1492 6922674 8961187 8859473
1493 7105065 8888090 8789043
1494 7243642 8837020 8734625
1495 7420737 8777217 8679679
1496 7520527 8721752 8620539
1497 7380737 8679504 8580323
1498 7087699 8653016 8556076
1499 6867872 8664445 8564074
1500 6612541 8691017 8592764
1501 6736368 8701987 8606845
1502 6625191 8793716 8698569
1503 6557954 8838330 8745393
1504 6469715 8871779 8777920
1505 6251417 8938379 8840777
1506 5699496 8973010 8885315
1507 5916130 9010034 8918086
1508 5978294 9044251 8951054
1509 6048783 9064594 8968728
1510 6159711 9061034 8965743
1511 6432498 9057752 8957543
1512 6771830 9008559 8903143
1513 6931000 8935894 8834723
1514 7021728 8880358 8783445
1515 7212683 8836528 8736025
1516 7513689 8796849 8696276
1517 7406306 8756849 8652220
1518 7339788 8714722 8611527
1519 7090932 8681254 8580721
1520 7363905 8669757 8572577
1521 7231864 8680812 8582737
1522 6427580 8724819 8630473
1523 6548259 8800520 8706009
1524 6386762 8857169 8756706
1525 6342483 8933510 8841289
1526 6319406 9003479 8906688
1527 6160983 9041214 8946813
1528 5501671 9065443 8968837
1529 5952637 9103605 9009896
1530 6747452 9091017 8989752
1531 7203118 9017567 8917691
1532 7368482 8941828 8840540
1533 7067055 8888612 8788155
1534 7185186 8850063 8747347
1535 7741886 8783636 8680625
1536 8324514 8691458 8584622
1537 8369035 8593045 8495745
1538 8250184 8580644 8478829
1539 8125013 8577469 8477341
1540 8240141 8570601 8471185
1541 8107995 8605078 8504134
1542 7755691 8605438 8508077
1543 7787432 8645325 8553735
1544 7670676 8731270 8641493
1545 7471383 8789999 8694196
1546 7171337 8870034 8771894
1547 7147110 8907571 8809625
1548 7105016 8963105 8863255
1549 7333679 8971856 8878454
1550 7404156 8953284 8858116
1551 7700441 8965977 8866964
1552 8111345 8907142 8813646
1553 8290298 8835887 8736094
1554 8295602 8772110 8672458
1555 8362398 8695628 8599144
1556 8271303 8647150 8542804
1557 8044870 8588423 8485965
1558 7827608 8588629 8492555
1559 7407126 8587391 8484610
1560 7187478 8584771 8485291
1561 6792943 8617387 8514062
1562 6381559 8666391 8573266
1563 6113345 8737447 8639093
1564 5658305 8817724 8722490
1565 5409014 8923209 8825161
1566 5023441 9015941 8919526
1567 4936702 9034481 8934118
1568 4654973 9057585 8969616
1569 4819547 9113754 9012368
1570 4912592 9108050 9014918
1571 5053078 9073948 8973536
1572 5412208 9034298 8929287
1573 5635718 8969110 8871903
1574 5777002 8917796 8814737
1575 6085043 8844399 8741421
1576 6293386 8800363 8694266
1577 6082390 8743240 8641559
1578 6058611 8713176 8610732
1579 5974540 8701624 8599703
1580 6033388 8725377 8623286
1581 5911119 8732873 8632742
1582 5649874 8779489 8683486
1583 5402193 8834021 8737387
1584 5238412 8929453 8829977
1585 5277224 8975963 8880845
1586 5349779 9041653 8942857
1587 5626386 9084281 8986678
1588 5584106 9101351 9005066
1589 5545745 9106613 9014532
1590 5535058 9080736 8977850
1591 5919751 9067490 8975406
1592 6302152 9024276 8921871
1593 6717018 8960295 8858844
1594 7006870 8912177 8805727
1595 7161320 8824411 8723304
1596 7402983 8762527 8662944
1597 7185466 8725558 8619958
1598 7352133 8693309 8594176
1599 6916239 8662355 8559333
1600 6907189 8661311 8566148
1601 6976596 8660002 8560001
1602 6772089 8746907 8649893
1603 6622854 8778278 8684761
1604 6370245 8822789 8724156
1605 6019604 8886230 8796211
1606 5558930 8953709 8854979
1607 5944292 9007018 8907427
1608 5928522 9057605 8958200
1609 6177655 9059088 8965443
1610 6137026 9050388 8951162
1611 6202672 9035156 8938270
1612 6605946 8979658 8874905
1613 7012057 8917138 8813411
1614 7317471 8838442 8733872
1615 7664782 8790250 8688809
1616 7963167 8749737 8647768
1617 7796354 8699330 8597673
1618 7725341 8668448 8571712
1619 7489186 8664616 8560145
1620 7096347 8686787 8597568
1621 6767049 8694728 8597435
1622 6827972 8752915 8664121
1623 6480508 8790224 8696774
1624 6196973 8849027 8758898
1625 6081570 8912086 8809870
1626 6065806 8960745 8863443
1627 6066567 9003757 8906199
1628 5888009 9039792 8940911
1629 6194558 9060390 8965285
1630 6255833 9060948 8969129
1631 6560141 9032615 8931026
1632 7010411 8975806 8877622
1633 7052609 8924019 8820822
1634 7145164 8835667 8736803
1635 7316495 8767735 8670831
1636 7424235 8714995 8614045
1637 7463380 8674931 8576724
1638 7623808 8651484 8551259
1639 7445978 8654705 8558554
1640 7378106 8666721 8570833
1641 7200773 8666310 8571529
1642 6920776 8699455 8602882
1643 6630098 8782895 8687216
1644 6347268 8854776 8754004
1645 6061424 8909570 8816898
1646 5921035 8992396 8896335
1647 6440480 9031564 8931145
1648 6451080 9034137 8933902
1649 6945681 9029478 8937217
1650 6872570 9016349 8917374
1651 6547173 9013832 8911597
1652 6888655 8981389 8880984
1653 7179720 8930034 8826601
1654 7456969 8871085 8770086
1655 7579487 8775255 8677770
1656 7650222 8713787 8615043
1657 7626309 8674206 8572059
1658 7757967 8643320 8548434
1659 7517495 8635893 8540828
1660 7489902 8621826 8523850
1661 7169496 8631775 8535018
1662 6823281 8711250 8612583
1663 6671846 8779120 8680937
1664 6643398 8867237 8774098
1665 6367072 8963097 8869565
1666 6440633 9023099 8932647
1667 6513219 9043405 8942299
1668 6167662 9039142 8944252
1669 6355695 9053207 8959191
1670 6440615 9045682 8948081
1671 6860078 9034102 8939682
1672 7072783 8973664 8875511
1673 7101870 8901345 8803643
1674 7208742 8847491 8745955
1675 7466226 8783865 8679681
1676 7846504 8710126 8608787
1677 7732200 8658239 8561502
1678 7960735 8603631 8501861
1679 7639488 8584674 8485331
1680 7473068 8594341 8497307
1681 7224092 8621181 8528407
1682 7136387 8691405 8595879
1683 6966273 8738476 8636641
1684 6440357 8811348 8715624
1685 6517072 8908165 8809007
1686 6342394 8947331 8850179
1687 5928451 9006447 8905740
1688 5890955 9038245 8945506
1689 6181422 9062129 8959507
1690 6406255 9062296 8961341
1691 6612591 9011471 8910951
1692 6779750 8950565 8856042
1693 6893577 8897899 8799319
1694 7354959 8842578 8748752
1695 7707565 8772014 8676117
1696 7769512 8740443 8647392
1697 7644943 8687836 8585482
1698 7783411 8653276 8556604
1699 7533689 8650169 8549972
1700 7415463 8674181 8569898
1701 6972769 8683026 8588582
1702 6828302 8749945 8647325
1703 6877287 8803338 8708246
1704 6786604 8872413 8778848
1705 6519525 8930155 8835463
1706 6423786 8972547 8882876
1707 6508309 9035823 8940388
1708 6312552 9093174 8992597
1709 6508990 9103207 9007110
1710 6733200 9091493 8994359
1711 6956396 9049085 8951611
1712 7053420 9003934 8907813
1713 7276536 8945467 8845140
1714 7505503 8925387 8822842
1715 7855671 8859809 8759958
1716 7832764 8795890 8690767
1717 7736251 8736416 8635278
1718 8090516 8704881 8609880
1719 7874410 8667322 8565708
1720 7724694 8684357 8586998
1721 7466920 8677281 8582119
1722 7186647 8756776 8665848
1723 7104253 8801934 8702967
1724 6962986 8844672 8749757
1725 6768066 8913965 8819803
1726 6614482 8968050 8870558
1727 6655391 9024384 8927799
1728 6517802 9044168 8952838
1729 6778291 9051820 8954477
1730 6890259 9051389 8954689
1731 7232004 9033489 8931503
1732 7307215 8966530 8868209
1733 7357537 8936172 8839710
1734 7279539 8858951 8759517
1735 7257045 8811772 8708145
1736 7858287 8727214 8633492
1737 8132116 8677674 8576798
1738 8229644 8632330 8533919
1739 7822250 8610404 8510306
1740 7692731 8634642 8527335
1741 7530450 8641063 8541888
1742 7286944 8701664 8605554
1743 7269265 8767785 8672793
1744 6946530 8819383 8725081
1745 6842079 8888957 8793766
1746 6515779 8933961 8843622
1747 6509702 9016911 8920337
1748 6567329 9057677 8960230
1749 6777489 9090401 8994996
1750 7002628 9038498 8941263
1751 7208250 9019590 8919364
1752 7495828 8980394 8881767
1753 7767815 8901460 8803450
1754 7994329 8850279 8751775
1755 8209487 8774133 8666063
1756 8404718 8688483 8582838
1757 8029024 8642759 8543004
1758 8118424 8605678 8503269
1759 8114362 8590034 8488573
1760 7988511 8608852 8511229
1761 7781386 8627421 8527466
1762 7667030 8681097 8584568
1763 7290925 8755570 8657482
1764 7195403 8843743 8748316
1765 6999696 8938538 8841600
1766 6666342 9023842 8928218
1767 6727979 9039531 8941963
1768 6577569 9034501 8943162
1769 6812500 9051618 8959755
1770 7207233 9033817 8934644
1771 7485696 8986347 8888167
1772 7608915 8923083 8826210
1773 7784509 8863619 8765282
1774 7922361 8815270 8723267
1775 7902497 8737812 8636151
1776 8297363 8679282 8574526
1777 8461562 8661164 8559281
1778 8566456 8598098 8503715
1779 8315494 8585560 8483645
1780 8420493 8602086 8508677
1781 7982468 8651361 8553624
1782 7563067 8680347 8579961
1783 7447325 8750814 8656058
1784 7283012 8815737 8722683
1785 7102867 8889763 8795035
1786 6570910 8954475 8860751
1787 6451962 8996365 8900648
1788 6539992 9058786 8970935
1789 6868951 9071238 8973168
1790 7014433 9053078 8957368
1791 7467454 9046996 8952669
1792 7618821 8967462 8864526
1793 7571748 8922401 8818117
1794 7802092 8845460 8749238
1795 8114050 8772464 8670139
1796 8271919 8686401 8587811
1797 8182642 8661386 8564174
1798 8416021 8610599 8511344
1799 8132361 8602985 8505574
1800 8041706 8621182 8525798
1801 7711661 8683785 8583183
1802 7608860 8719881 8627598
1803 7540966 8784894 8690213
1804 7103389 8875706 8782410
1805 6852998 8925951 8837121
1806 6553673 8980712 8886629
1807 6615946 9030124 8934313
1808 6583514 9056562 8958261
1809 6928714 9050826 8953809
1810 7028471 9037978 8948027
1811 7389644 9020368 8924585
1812 7533554 8970784 8870138
1813 7484924 8901359 8802928
1814 7586348 8876285 8777176
1815 7836837 8847256 8745640
1816 8356728 8774035 8673013
1817 8435508 8718726 8616796
1818 8550592 8658674 8555637
1819 8089981 8651603 8547481
1820 7785988 8644043 8544649
1821 7555024 8668812 8569713
1822 7308921 8728680 8633931
1823 7172116 8784053 8690573
1824 7125219 8864988 8774321
1825 6790116 8927990 8832346
1826 6609722 8979803 8882644
1827 6886521 8998888 8903921
1828 6621188 9047249 8955508
1829 6780792 9032191 8934238
1830 7100730 9027276 8927614
1831 7381870 9019795 8922331
1832 7476015 8967346 8865058
1833 7683663 8898304 8803944
1834 7675272 8839637 8732372
1835 7705916 8755950 8655491
1836 7995943 8700065 8598971
1837 7745388 8659798 8561430
1838 7852666 8612709 8515591
1839 7499276 8598333 8504742
1840 7505520 8613099 8515671
1841 7435429 8635996 8536499
1842 7028133 8694039 8597330
1843 6604321 8753265 8658602
1844 6557225 8815209 8719403
1845 6695977 8852291 8755839
1846 6534088 8892757 8796219
1847 6377133 8930671 8833087
1848 6328136 8940416 8839462
1849 6600794 8923341 8823242
1850 6823115 8904734 8803296
1851 6991770 8897684 8800414
1852 7337880 8864671 8763624
1853 7479634 8780731 8676586
1854 7395142 8718907 8617651
1855 7569071 8643855 8540138
1856 7967946 8579513 8474696
1857 7918650 8537890 8435238
1858 8243049 8519267 8420987
1859 8173853 8496230 8395157
1860 7938034 8497849 8400654
1861 7450386 8538021 8443777
1862 6935624 8613553 8518228
1863 6885726 8713784 8612131
1864 6793894 8794038 8707735
1865 6447069 8873515 8780059
1866 6434823 8905297 8808488
1867 6824488 8915695 8819028
1868 6554453 8916731 8828317
1869 6749066 8949552 8853865
1870 6702481 8931165 8831003
1871 6585135 8931118 8832812
1872 6971287 8888152 8786974
1873 7335296 8862979 8772063
1874 7391903 8785894 8688673
1875 7718837 8744079 8639084
1876 7788089 8684765 8579998
1877 7735649 8655258 8549838
1878 7789247 8628693 8527936
1879 7792416 8607869 8507709
1880 7602021 8627470 8527009
1881 7408425 8631855 8530370
1882 7073724 8694686 8595483
1883 6788282 8730359 8630622
1884 6764676 8791787 8695978
1885 6697548 8856990 8760414
1886 6542695 8916530 8822407
1887 6373245 8959003 8859820
1888 5976471 8998955 8903150
1889 6460539 9016825 8924937
1890 6615798 9020034 8916477
1891 7116300 8982022 8880642
1892 7183089 8906579 8812437
1893 7258714 8881279 8779076
1894 7447792 8822932 8723924
1895 7583076 8764415 8659610
1896 7917580 8699514 8596010
1897 8171262 8634856 8539302
1898 7969447 8580702 8482525
1899 7526464 8598342 8495604
1900 7486259 8616274 8520424
1901 7215808 8665788 8565154
1902 6773024 8723756 8622725
1903 6656904 8740570 8647590
1904 6416775 8805409 8708236
1905 6825291 8861653 8765589
1906 6747113 8897118 8794658
1907 6518983 8931420 8837485
1908 6181395 8948557 8850558
1909 6631922 8953956 8855174
1910 6605728 8933975 8832975
1911 6657877 8916907 8817568
1912 7023457 8860127 8753950
1913 7299918 8833003 8732974
1914 7570553 8774582 8678679
1915 7807004 8724390 8616241
1916 7935929 8674945 8571876
1917 8117749 8646376 8546454
1918 8171922 8612425 8506231
1919 7732850 8572030 8472807
1920 7963649 8587528 8487670
1921 7651461 8608463 8509768
1922 7669606 8666272 8568389
1923 7574503 8692384 8603905
1924 7103906 8748346 8651309
1925 6445314 8851451 8757828
1926 6143285 8930647 8833321
1927 6497854 8973409 8881711
1928 6151357 9034061 8936958
1929 6465741 9024209 8926876
1930 6578165 9008543 8908509
1931 6947067 8949906 8850797
1932 7184952 8897725 8796861
1933 7584592 8869839 8771061
1934 7687962 8819697 8713666
1935 7673217 8748166 8646768
1936 8102914 8703747 8600838
1937 8109797 8677944 8577620
1938 8303944 8619229 8514881
1939 8132565 8589460 8495108
1940 7798903 8595511 8492200
1941 7544854 8637883 8541261
1942 7192269 8704165 8602860
1943 7193436 8750963 8658498
1944 7116172 8796437 8697694
1945 6979314 8889649 8799708
1946 6657583 8963243 8861488
1947 6562739 8985418 8891371
1948 6585262 9011685 8914951
1949 7021863 9015337 8922875
1950 7099847 8979795 8883828
1951 7385660 8944678 8844539
1952 7462883 8906188 8807198
1953 7437093 8868990 8771190
1954 7748847 8822209 8725248
1955 7985313 8747277 8648704
1956 8002708 8645493 8540988
1957 7807343 8595699 8492611
1958 8186448 8562311 8463660
1959 8018192 8541983 8444872
1960 7625679 8555279 8452283
1961 7351522 8572200 8475571
1962 7378269 8665657 8566016
1963 7146189 8696967 8605268
1964 6940846 8803818 8707473
1965 6760044 8903424 8810579
1966 6442552 8993124 8898965
1967 6483462 9027822 8931041
1968 6187036 9039951 8941107
1969 6486322 9023988 8925771
1970 6594348 9028629 8934595
1971 6795503 8981846 8885161
1972 7113639 8914308 8815108
1973 7845943 8825081 8725394
1974 7887665 8749972 8647946
1975 7893064 8660010 8559213
1976 8058508 8602493 8502917
1977 8353474 8538918 8438034
1978 8571291 8524090 8430013
1979 8284290 8510281 8406678
1980 8089878 8529710 8431402
1981 7845437 8563603 8464754
1982 7464154 8620446 8523682
1983 7335822 8676476 8579840
1984 6893043 8745993 8648743
1985 6730071 8828824 8730799
1986 6393034 8891011 8790149
1987 6907457 8931660 8832864
1988 6820676 8981087 8882648
1989 7058339 8957704 8855239
1990 6914116 8914387 8817017
1991 6755552 8903498 8806812
1992 7235138 8868762 8770088
1993 7304343 8816956 8711160
1994 7555282 8753073 8650838
1995 7944376 8672761 8572068
1996 8251994 8622570 8519496
1997 8086354 8580275 8474956
1998 8018663 8557899 8451667
1999 7965004 8549062 8443734
2000 8013497 8553563 8458218
2001 7731490 8592395 8495284
2002 7328296 8675308 8583333
2003 7199988 8711392 8620035
2004 6940382 8771291 8669120
2005 6777813 8834774 8737533
2006 6616228 8879350 8781814
2007 6568483 8927502 8831911
2008 6377498 8945607 8847902
2009 6688966 8942252 8844206
2010 6636467 8921030 8818012
2011 7077946 8890602 8791365
2012 7528434 8823537 8723164
2013 7726237 8780435 8681596
2014 7656263 8711111 8611978
2015 7436503 8689326 8597414
2016 7722964 8675227 8573616
2017 7771011 8660653 8568922
2018 8036814 8593067 8495033
2019 8006763 8568744 8468598
2020 7972586 8570992 8468219
2021 7893973 8580560 8483724
2022 7407916 8618007 8522014
2023 7221867 8661747 8561627
2024 7127881 8706258 8608559
2025 7011602 8771932 8675826
2026 6315613 8849399 8752245
2027 6154561 8884109 8789447
2028 5954259 8966386 8867553
2029 6497979 8972361 8874825
2030 6723876 8953966 8857514
2031 7343652 8943936 8844568
2032 7436740 8879196 8776675
2033 7322029 8813567 8713100
2034 7624542 8755595 8653700
2035 7824803 8681334 8580740
2036 8064067 8648604 8547347
2037 8005927 8608746 8512458
2038 8406240 8604295 8502309
2039 8134133 8597309 8502499
2040 7624629 8593032 8490860
2041 7344518 8625191 8527176
2042 6884788 8685589 8587324
2043 6752426 8724343 8625277
2044 7299058 8779811 8689444
2045 7038250 8866070 8772815
2046 6932530 8941997 8845879
2047 6963757 8997552 8905187
2048 6638000 9007213 8907867
2049 6975334 9001447 8899985
2050 7080696 8974175 8877823
2051 7157450 8945919 8848777
2052 7280568 8903119 8804256
2053 7440285 8846983 8746867
2054 7837391 8760475 8656924
2055 8181503 8679682 8576392
2056 7940592 8627523 8522870
2057 8209592 8600408 8496338
2058 8460071 8569867 8473681
2059 8127207 8553652 8448685
2060 7982040 8565986 8475986
2061 7443592 8625722 8529149
2062 7088052 8692509 8596370
2063 7113507 8734634 8635242
2064 7151941 8796780 8702872
2065 6948772 8875748 8777169
2066 6959777 8934680 8842359
2067 6835017 8983235 8886169
2068 6798790 9014682 8919295
2069 7017344 9003082 8907538
2070 7021070 9001072 8900857
2071 7039797 8967561 8866203
2072 7508508 8876845 8775273
2073 7788757 8794618 8691509
2074 7871029 8740852 8634936
2075 7950374 8675802 8566895
2076 8200588 8632273 8533979
2077 7849971 8573766 8474625
2078 8065497 8541809 8436946
2079 7992859 8522197 8422373
2080 7921153 8538765 8437282
2081 7513019 8578170 8480705
2082 7240293 8618576 8519500
2083 7088241 8680495 8584667
2084 7099636 8727943 8629073
2085 6641255 8803944 8707397
2086 6351752 8902072 8813462
2087 6887339 8902166 8810549
2088 6750864 8964166 8864787
2089 7029627 8972544 8868373
2090 7073639 8963809 8867186
2091 7416017 8929242 8832294
2092 7430934 8875640 8775883
2093 7441660 8838561 8740031
2094 7678380 8770180 8666055
2095 7797188 8697695 8594970
2096 8011840 8652958 8557135
2097 8035052 8615960 8517009
2098 8174972 8607229 8506441
2099 7935839 8585177 8484470
2100 7805749 8578336 8478664
2101 7760602 8602948 8507163
2102 7717688 8701422 8605150
2103 7693208 8712747 8616301
2104 7570157 8759356 8662898
2105 7327359 8826181 8725421
2106 6659066 8884375 8788396
2107 5921140 8935455 8837330
2108 5925265 8994171 8897572
2109 6343578 9010364 8912265
2110 6558653 9003916 8906716
2111 7062228 8966812 8870989
2112 7656141 8907129 8799846
2113 7717748 8852200 8754675
2114 7626568 8790550 8687149
2115 7730876 8725990 8620306
2116 8105459 8677205 8571530
2117 8216071 8648675 8548253
2118 8531185 8595365 8495805
2119 7905285 8608149 8512146
2120 7372126 8622219 8521884
2121 7362286 8657304 8558497
2122 7132944 8738536 8640891
2123 7066020 8800266 8699874
2124 6833975 8890713 8794315
2125 6363078 8922709 8827083
2126 6136311 8993437 8895433
2127 6213979 9035632 8935002
2128 6157903 9057373 8954307
2129 6335562 9071777 8973986
2130 6651125 9035131 8937046
2131 7280846 9015094 8919814
2132 7526737 8944154 8842837
2133 7637152 8895284 8788641
2134 7855359 8853527 8750793
2135 7600296 8782452 8677667
2136 8156429 8708158 8609554
2137 8323908 8646020 8547765
2138 8515833 8621779 8520713
2139 8103357 8604092 8508327
2140 7918579 8589001 8491454
2141 7784261 8603188 8499094
2142 7564789 8636685 8538051
2143 7257698 8707056 8605501
2144 6877960 8786750 8685882
2145 6516813 8858747 8761293
2146 6436016 8929846 8832394
2147 6688785 8966695 8871416
2148 6898039 8969040 8869429
2149 7084613 8958035 8860610
2150 6970776 8958067 8855052
2151 7292122 8946292 8850162
2152 7429017 8907328 8810860
2153 7789482 8825472 8726695
2154 7836256 8771528 8672679
2155 7886062 8699754 8596588
2156 7990482 8643917 8541471
2157 7845844 8589844 8487573
2158 7996177 8596624 8497699
2159 7815060 8606434 8504692
2160 7616547 8612501 8513551
2161 7726408 8602673 8504505
2162 7544311 8672083 8578329
2163 7672254 8721608 8625286
2164 7686962 8769634 8672697
2165 7358335 8866202 8772088
2166 7015606 8940933 8849314
2167 7286879 8940301 8846075
2168 7413395 8940290 8841141
2169 7803580 8966721 8874047
2170 7833457 8939497 8843666
2171 7853482 8932520 8831498
2172 8177495 8869124 8764608
2173 8607142 8799348 8700071
2174 9102118 8709922 8611860
2175 9330256 8641712 8535824
2176 9156740 8573772 8478133
2177 9243683 8513988 8414860
2178 9707228 8483057 8388349
2179 9275952 8488440 8390466
2180 9455184 8496630 8400091
2181 8981267 8499304 8399775
2182 8801486 8567263 8472889
2183 8879630 8633250 8532343
2184 8373305 8688690 8590934
2185 7722119 8777288 8679638
2186 7678151 8852299 8760356
2187 7893043 8895826 8796950
2188 7303465 8929247 8834782
2189 7204317 8955942 8858272
2190 7036612 8956909 8858174
2191 7283128 8959354 8858322
2192 7495647 8901236 8799722
2193 7220331 8848990 8749398
2194 7580034 8812896 8715174
2195 7615173 8742678 8641697
2196 7435417 8689773 8591730
2197 7460174 8652223 8544955
2198 7307432 8634038 8533569
2199 6964188 8634854 8537532
2200 6865981 8690378 8588208
2201 6516305 8708435 8611182
2202 6203969 8812513 8713635
2203 6084920 8884121 8783706
2204 5811771 8944044 8849557
2205 5439202 9008786 8908489
2206 5429547 9046272 8949063
2207 5304609 9084193 8985413
2208 5252323 9124570 9028751
2209 5776470 9113648 9013661
2210 6110354 9094113 8997342
2211 6464968 9057535 8952291
2212 6537242 8983331 8886342
2213 6580224 8943868 8841984
2214 6452150 8881648 8778616
2215 6775898 8814620 8712664
2216 7236405 8790237 8686968
2217 7400673 8737181 8634650
2218 7527846 8676241 8583583
2219 7670789 8647079 8547238
2220 7650559 8669334 8574350
2221 7320733 8696518 8599198
2222 7210968 8742892 8641268
2223 6925178 8801326 8704991
2224 6718013 8861894 8765448
2225 6496302 8918639 8819639
2226 6456538 8977201 8882301
2227 6540770 9002026 8906118
2228 6462212 9039214 8940162
2229 6619106 9038919 8935653
2230 6845732 8989544 8885515
2231 7321705 8932116 8830354
2232 7420882 8884132 8785349
2233 7680843 8838228 8738239
2234 7875557 8794657 8696440
2235 8107477 8726371 8622567
2236 8596193 8639410 8541947
2237 8580800 8603693 8499062
2238 8597601 8566412 8462659
2239 8237280 8558375 8460424
2240 7894628 8545438 8449414
2241 7524087 8591855 8495470
2242 7231829 8624489 8531122
2243 7039676 8700473 8602397
2244 6887285 8772620 8676128
2245 6663665 8862551 8765692
2246 6715180 8913243 8818131
2247 6829465 8956035 8857719
2248 6947889 8955982 8858084
2249 7196897 8975920 8873187
2250 6971329 8963158 8865650
2251 7364835 8937616 8832929
2252 7728031 8889482 8791632
2253 7992435 8817041 8711988
2254 8239452 8727619 8626507
2255 8496867 8658013 8555004
2256 8531338 8615950 8514833
2257 8604058 8556601 8451818
2258 8730758 8497124 8395589
2259 8414917 8497293 8393868
2260 8288790 8508317 8411013
2261 7732287 8562227 8466010
2262 7375982 8619714 8517517
2263 6894974 8689854 8595953
2264 6744548 8765807 8670717
2265 6685693 8873549 8772300
2266 6936455 8948991 8855913
2267 7113238 8987402 8887327
2268 7221571 9003476 8903448
2269 7292611 8990628 8887102
2270 7246665 8961379 8857973
2271 7537701 8949798 8848138
2272 7628053 8882303 8783696
2273 8321435 8855143 8755434
2274 8252691 8812092 8711379
2275 8177370 8711832 8604427
2276 8054896 8651452 8550420
2277 8124118 8630222 8527633
2278 8403581 8611425 8512485
2279 7928813 8588396 8490175
2280 7920204 8609914 8511702
2281 8153445 8591991 8494708
2282 7990923 8667505 8564512
2283 7720087 8712759 8613515
2284 7237536 8765076 8668715
2285 6750722 8813730 8719050
2286 6521326 8896650 8802771
2287 6842334 8967828 8870459
2288 7012762 9016521 8916078
2289 7237197 9030331 8930338
2290 7201452 9007169 8909689
2291 7532566 8988416 8894464
2292 7809245 8933789 8834215
2293 8110510 8856669 8752842
2294 8167058 8789086 8688677
2295 8308320 8729196 8627142
2296 8476699 8657434 8558848
2297 8599319 8599621 8495221
2298 8770541 8544779 8450894
2299 8551874 8540754 8443431
2300 8478841 8559347 8458051
2301 8201089 8581398 8477154
2302 7897439 8646302 8554954
2303 7597297 8712391 8613896
2304 7260383 8806268 8709924
2305 6977656 8886122 8792276
2306 7010313 8956400 8861231
2307 6972081 8972195 8876048
2308 6887232 8992025 8899208
2309 7335972 8996029 8897817
2310 7335876 8990955 8894239
2311 7629995 8965258 8862919
2312 7873252 8883595 8781567
2313 7998983 8824474 8720517
2314 8114280 8738079 8638455
2315 8274414 8672899 8572437
2316 8290704 8675503 8572907
2317 8260140 8646422 8545791
2318 8755300 8630966 8529065
2319 8862169 8587215 8489637
2320 8810486 8565878 8464484
2321 8200878 8587959 8491702
2322 7947840 8676352 8581732
2323 7982129 8705695 8612878
2324 7594210 8768045 8670351
2325 7021831 8868643 8772447
2326 6920799 8937462 8849667
2327 7072275 8955342 8857549
2328 7009256 8962603 8863981
2329 7359581 8972923 8873814
2330 7425439 8956406 8861115
2331 7705954 8916758 8822555
2332 7820749 8851808 8752349
2333 8098646 8782395 8683128
2334 8379273 8704833 8600947
2335 8797959 8625740 8520804
2336 8657450 8581007 8479685
2337 8825156 8550046 8449452
2338 8841532 8523877 8425723
2339 8414825 8523742 8426212
2340 8467125 8558170 8458592
2341 8306835 8604132 8503653
2342 7979926 8654039 8553948
2343 7886378 8692353 8593200
2344 7294712 8772531 8672284
2345 6907064 8829109 8732339
2346 6963713 8909830 8814343
2347 7001838 8973043 8879293
2348 7111344 8995390 8897713
2349 7486273 8998217 8902653
2350 7546738 8971652 8871542
2351 8125131 8923886 8828905
2352 8116404 8904158 8803954
2353 8641865 8813226 8709713
2354 8736387 8738565 8631340
2355 8877732 8658419 8561183
2356 8723423 8564831 8461954
2357 8558530 8546124 8443863
2358 8589494 8528992 8435350
2359 8497018 8536847 8438906
2360 8725556 8546134 8447272
2361 8425998 8565669 8467129
2362 8401518 8624802 8525202
2363 8359911 8667281 8572467
2364 7961767 8740411 8643709
2365 7343112 8835021 8737812
2366 7188862 8918676 8822801
2367 7297369 8997780 8902255
2368 7141396 9068108 8978502
2369 7511076 9061587 8966229
2370 7743438 9023102 8927666
2371 8186585 8974162 8873617
2372 8105330 8893392 8793851
2373 8036516 8853302 8754708
2374 8161731 8756630 8654296
2375 8672256 8699203 8598370
2376 8911058 8615431 8512006
2377 9062297 8559908 8461768
2378 9256626 8524021 8421543
2379 8875721 8519356 8422100
2380 8587099 8535811 8433891
2381 8173826 8558756 8455189
2382 7983767 8643602 8549501
2383 7963886 8718872 8619342
2384 8208592 8748910 8653998
2385 7941186 8830051 8730216
2386 7314237 8891076 8788276
2387 7226006 8937224 8834706
2388 7249240 8936716 8836138
2389 7707637 8938537 8838582
2390 7960764 8942180 8842269
2391 8222812 8892677 8788772
2392 8408220 8791186 8692189
2393 8677214 8750415 8648287
2394 8846647 8683027 8578382
2395 8995161 8645048 8546831
2396 9016216 8589415 8484926
2397 9006051 8540027 8438234
2398 9232563 8514060 8412130
2399 9180171 8484830 8389731
2400 9006976 8489126 8384777
2401 8379020 8499160 8398351
2402 8148902 8591157 8497162
2403 7862311 8674032 8575238
2404 7770636 8753962 8654390
2405 7608066 8784330 8689341
2406 7656227 8853766 8756657
2407 7674151 8868991 8771827
2408 7724554 8896818 8794054
2409 7863737 8891442 8794232
2410 7704663 8896403 8795679
2411 8306280 8896602 8798828
2412 8632519 8804036 8699691
2413 8483337 8740443 8643759
2414 8341058 8703059 8599900
2415 8668939 8661433 8560269
2416 9077449 8624598 8527866
2417 9318986 8587570 8484907
2418 9299973 8589241 8491147
2419 8969592 8581357 8483281
2420 8758153 8552884 8455636
2421 8548100 8575175 8475982
2422 8425750 8622369 8525727
2423 8070283 8687403 8595079
2424 7666032 8773167 8676688
2425 7659283 8859141 8762791
2426 7640112 8911627 8817151
2427 7845460 8950362 8850831
2428 7901677 8977731 8878701
2429 7907548 8984195 8887922
2430 7776644 8937887 8837785
2431 7896831 8930403 8830682
2432 8078548 8863586 8763009
2433 8300162 8786615 8688246
2434 8681287 8724770 8623508
2435 9150070 8640282 8536577
2436 9089581 8572490 8466122
2437 9093216 8537551 8440715
2438 9406910 8510082 8407352
2439 9453676 8505120 8407607
2440 9213030 8524408 8431394
2441 8714646 8532922 8433643
2442 8076219 8607017 8511384
2443 7751521 8687689 8588893
2444 7521174 8735381 8639296
2445 7240525 8816089 8723910
2446 7380586 8873164 8777188
2447 7540547 8918420 8827173
2448 7152204 8984568 8881127
2449 7426996 8992751 8892639
2450 7812395 8972242 8873905
2451 8262622 8936658 8840299
2452 8371449 8896254 8797257
2453 8316736 8832436 8735513
2454 8256811 8778834 8676983
2455 8612333 8707246 8615048
2456 8671033 8650064 8539616
2457 8896115 8582898 8480337
2458 9053719 8540326 8434845
2459 8672705 8510626 8408569
2460 8428168 8543291 8444249
2461 8098199 8558852 8464906
2462 7732546 8649738 8554856
2463 7545851 8694456 8597798
2464 7387207 8748407 8651976
2465 7327177 8836367 8742016
2466 7069958 8915961 8818490
2467 7170530 8964190 8868104
2468 7196288 9003202 8906979
2469 7530576 8976107 8876139
2470 7502705 8953912 8853873
2471 7893625 8870756 8773166
2472 7889294 8805340 8706080
2473 8044081 8764676 8662161
2474 8434012 8718788 8613056
2475 8860129 8650408 8549288
2476 8988332 8584531 8479553
2477 8944656 8542995 8440174
2478 9009454 8536411 8430814
2479 8805635 8513981 8415168
2480 8270456 8535483 8435601
2481 7688754 8589984 8494965
2482 7596917 8647497 8548315
2483 7405842 8685817 8587320
2484 7154645 8771136 8677301
2485 7097424 8864490 8768563
2486 6826983 8901722 8806779
2487 6735778 8941756 8840827
2488 6766902 8983505 8886766
2489 7107892 8978313 8877628
2490 7424043 8960427 8864800
2491 7629150 8906741 8812752
2492 7770068 8844467 8744606
2493 8041448 8791893 8683709
2494 8268933 8697740 8594352
2495 8321885 8634596 8531551
2496 8506751 8568651 8466194
2497 8404469 8528099 8427492
2498 8582544 8526769 8423637
2499 8448205 8507753 8407457
2500 8221778 8513738 8412826
2501 8024451 8575665 8475959
2502 7869636 8660392 8562642
2503 7446815 8698920 8606960
2504 7256592 8800456 8701115
2505 6848412 8865937 8769164
2506 6925375 8910678 8816363
2507 6964444 8960354 8864884
2508 6928534 8980849 8879994
2509 7203476 8978019 8882098
2510 7389403 8947693 8844720
2511 7643402 8907244 8806774
2512 7722487 8852159 8750981
2513 8042943 8796929 8690933
2514 8301976 8720445 8622865
2515 8545385 8668132 8572714
2516 8463302 8651249 8549006
2517 8652465 8644194 8546809
2518 8729249 8628059 8522993
2519 8472829 8589332 8485066
2520 8243333 8615259 8522218
2521 7930382 8641283 8546657
2522 7976277 8708904 8610152
2523 7689535 8742699 8648095
2524 7394888 8824261 8732098
2525 7215552 8895009 8804103
2526 7110518 8954434 8859814
2527 6955868 8960206 8861381
2528 6822442 9004577 8910090
2529 7023226 9003059 8905381
2530 7472171 8965849 8868810
2531 7769041 8942788 8852841
2532 7770485 8907480 8800792
2533 7816401 8864497 8766345
2534 7945864 8792942 8689942
2535 8176551 8711511 8608505
2536 8339267 8696649 8601275
2537 8482963 8657873 8559695
2538 8314620 8644249 8548959
2539 8189895 8646799 8548321
2540 8268078 8614172 8510872
2541 8154832 8612298 8512652
2542 7828557 8650200 8551923
2543 7523496 8705206 8618061
2544 7342551 8762443 8669187
2545 7092954 8867592 8769225
2546 7067189 8921196 8820109
2547 7281758 8928454 8833751
2548 7182831 8965273 8869486
2549 7407695 8982924 8883897
2550 7367206 8952223 8851717
2551 7612408 8920709 8821075
2552 7756851 8884359 8782116
2553 8026782 8815959 8715121
2554 8133983 8778479 8674481
2555 8554163 8681465 8580232
2556 8886167 8604327 8510793
2557 8821804 8576663 8472929
2558 8876163 8527262 8426378
2559 8413038 8532339 8436984
2560 8096299 8536825 8440088
2561 7877023 8585585 8488733
2562 7612568 8657838 8557141
2563 7672337 8693439 8597567
2564 7662597 8761432 8664564
2565 7324168 8841979 8742087
2566 7073041 8926387 8828314
2567 6950652 8997498 8899166
2568 6927553 9052066 8955136
2569 7145574 9037801 8937089
2570 7161611 8993678 8895257
2571 7601179 8962431 8862766
2572 7644285 8897681 8796416
2573 7871343 8840006 8735071
2574 8093049 8765895 8658995
2575 8470146 8688906 8591988
2576 8604836 8682433 8577864
2577 8632112 8617546 8517362
2578 8791120 8583746 8483773
2579 8682712 8568117 8471074
2580 8455185 8592382 8493131
2581 8091717 8615218 8516600
2582 7721210 8683698 8585332
2583 7467622 8731555 8639460
2584 7481655 8792742 8696829
2585 7141625 8849348 8753201
2586 6968235 8911323 8813198
2587 6999982 8947525 8849431
2588 7289666 8965246 8866600
2589 7734025 8937460 8839420
2590 7593988 8927033 8832705
2591 7518010 8905197 8809787
2592 7691806 8874881 8770378
2593 7898714 8813096 8708108
2594 8249592 8743385 8638721
2595 8626212 8669327 8575861
2596 8511462 8618725 8519444
2597 8347580 8588050 8483974
2598 8738153 8560953 8460738
2599 8628880 8535688 8436794
2600 8349937 8568942 8473600
2601 7855066 8618556 8522136
2602 7759539 8715528 8617905
2603 7432231 8767480 8668905
2604 7156226 8833198 8740564
2605 6864877 8906440 8814393
2606 6775013 8953983 8857001
2607 7067524 9019558 8918321
2608 7001659 9018000 8918442
2609 7304448 9027553 8925502
2610 7489458 8977680 8878811
2611 7560228 8948518 8844283
2612 7774449 8892631 8790171
2613 7905980 8830013 8725097
2614 8297834 8764621 8656504
2615 8625603 8682950 8578294
2616 8926539 8622297 8519920
2617 8725222 8612476 8517089
2618 8661703 8592470 8495111
2619 8321593 8586550 8486050
2620 8341129 8600101 8503739
2621 8099310 8605362 8503979
2622 7843435 8657735 8558412
2623 7543879 8690646 8591591
2624 7546759 8765295 8675012
2625 7317293 8838709 8738779
2626 7005104 8909619 8814118
2627 6932777 8954785 8853090
2628 7195031 8982980 8884516
2629 7405005 8961931 8863632
2630 7290081 8923011 8827926
2631 7747478 8916287 8814713
2632 7827574 8863466 8761224
2633 8056378 8815449 8719503
2634 8320309 8764704 8659475
2635 8543891 8677177 8574738
2636 8695400 8616459 8517484
2637 8761354 8595278 8493080
2638 8781924 8558384 8455069
2639 8441198 8555494 8459401
2640 8415099 8563190 8464233
2641 8285879 8586046 8487447
2642 8071024 8659244 8562414
2643 7765743 8740114 8640076
2644 7400223 8806816 8720445
2645 7037770 8858182 8766841
2646 7056525 8923078 8829836
2647 7082452 8947536 8850040
2648 6720637 8972757 8875500
2649 7136362 8978584 8871030
2650 7526325 8930531 8832775
2651 7664639 8922542 8825515
2652 7773869 8865574 8769162
2653 7960548 8820621 8715064
2654 8345512 8738008 8638377
2655 8295115 8693012 8593571
2656 8374196 8615235 8517253
2657 8154197 8576830 8474600
2658 8160606 8558639 8460746
2659 8173666 8565562 8459730
2660 8246898 8559722 8456302
2661 7813927 8593020 8492129
2662 7457451 8656021 8557827
2663 7310379 8700363 8603439
2664 7274562 8769086 8670008
2665 7212851 8844988 8745930
2666 7094300 8926898 8830364
2667 6935755 9004523 8904370
2668 6977919 9003556 8906351
2669 7141821 8978316 8880047
2670 7313272 8955129 8857858
2671 7682437 8891555 8785872
2672 7847864 8809357 8707103
2673 8087678 8764940 8659524
2674 8414602 8718060 8609229
2675 8448147 8650642 8548725
2676 8498915 8594834 8495351
2677 8542020 8571847 8467204
2678 8719225 8520822 8419682
2679 8572908 8530166 8432963
2680 8400934 8553963 8459273
2681 8094867 8607739 8503506
2682 8229392 8646488 8551845
2683 7964486 8697533 8608142
2684 7596534 8742847 8647581
2685 7300320 8850371 8755446
2686 7192968 8925586 8826666
2687 7214120 8959262 8857354
2688 7172252 8970836 8872632
2689 7272271 8975326 8876260
2690 7193040 8954160 8857730
2691 7629601 8928536 8822831
2692 7921837 8838402 8732268
2693 8341053 8765186 8663201
2694 8218374 8707320 8604526
2695 8044244 8658233 8551402
2696 8258300 8584440 8482422
2697 8587683 8532781 8428470
2698 8596502 8511995 8410957
2699 8439005 8514721 8415308
2700 8087533 8516568 8418672
2701 7675675 8555647 8451912
2702 7739581 8651566 8549608
2703 7440529 8723818 8628424
2704 7130820 8768932 8676043
2705 6828178 8843928 8748374
2706 6804197 8885117 8790450
2707 6709833 8898736 8800608
2708 6768553 8920358 8816929
2709 6744715 8933588 8830976
2710 7206831 8892338 8793796
2711 7346229 8854149 8756656
2712 7835914 8805185 8698716
2713 8263061 8753059 8650057
2714 8207571 8678114 8578110
2715 8133610 8636812 8535903
2716 8303680 8586748 8485208
2717 8262225 8590557 8492563
2718 8356986 8575823 8475524
2719 8113154 8551788 8454327
2720 7995156 8545613 8445219
2721 7864791 8582808 8482557
2722 8051176 8616182 8519460
2723 7522266 8670261 8571466
2724 7115070 8739331 8641223
2725 6635901 8800564 8698366
2726 6617901 8852159 8760297
2727 6837148 8909017 8810980
2728 6996671 8957099 8862060
2729 7061716 8946253 8847067
2730 7203800 8945826 8844499
2731 7433292 8921944 8821932
2732 7419742 8853920 8751055
2733 7983256 8794470 8687002
2734 8110288 8715997 8611467
2735 8362877 8641635 8537355
2736 8453711 8578945 8480545
2737 8696523 8554313 8448215
2738 8683280 8527142 8431535
2739 8326728 8544416 8444408
2740 8017758 8558146 8455675
2741 7556558 8580157 8481311
2742 7612510 8639951 8542212
2743 7437703 8673503 8576215
2744 7048412 8753021 8654312
2745 6853847 8817521 8719916
2746 6710518 8893853 8795157
2747 6678315 8941490 8837963
2748 6800956 8975402 8882669
2749 6924103 8991906 8896518
2750 7025203 8967784 8863889
2751 7390080 8941788 8847204
2752 7734270 8870820 8768114
2753 7995801 8795614 8690874
2754 7932664 8702411 8597098
2755 8214111 8620344 8512244
2756 8237719 8542836 8442133
2757 8128798 8527992 8424555
2758 8086197 8470838 8367835
2759 8083556 8470256 8369928
2760 7896794 8500443 8402804
2761 7646357 8505083 8404552
2762 7954226 8584348 8486864
2763 7504690 8672476 8574818
2764 6976806 8738380 8644121
2765 6961022 8814783 8717213
2766 6960240 8925561 8827600
2767 6865841 8979058 8882861
2768 7034433 9006547 8909423
2769 7216551 8995445 8897050
2770 7182653 8925459 8824122
2771 7380923 8899611 8803515
2772 7280233 8836594 8733049
2773 7479558 8796087 8689814
2774 7985576 8737930 8635420
2775 8163610 8674001 8577578
2776 8269217 8630680 8526398
2777 8396674 8582995 8485975
2778 8464585 8546705 8443659
2779 8178461 8539160 8434810
2780 8143986 8531669 8434255
2781 8057403 8581157 8482159
2782 8089258 8642676 8545699
2783 7804330 8672406 8572432
2784 7485193 8743628 8650741
2785 7515769 8816304 8721611
2786 7486454 8876329 8778582
2787 7393998 8864871 8766157
2788 7571244 8858522 8756542
2789 7945877 8857571 8757984
2790 8145332 8816609 8717373
2791 8470223 8796259 8697514
2792 8711413 8737469 8639407
2793 8937110 8684599 8578526
2794 9133897 8637071 8538883
2795 9501477 8595683 8491062
2796 9710021 8530978 8429759
2797 9828127 8481137 8382480
2798 9472945 8466171 8367267
2799 9146162 8488220 8389996
2800 8852374 8521573 8422232
2801 8647784 8585747 8488006
2802 8434830 8657261 8558331
2803 8443348 8732281 8636793
2804 8288030 8782098 8686261
2805 7884395 8832787 8738009
2806 7641276 8891599 8798497
2807 7360186 8941794 8841234
2808 7254579 8968465 8871568
2809 7245079 8945559 8851435
2810 7107933 8940993 8839011
2811 7168231 8930089 8829206
2812 7029601 8914605 8813906
2813 6997949 8850370 8746587
2814 7192690 8797891 8693245
2815 7449828 8725346 8626621
2816 7133736 8710606 8607356
2817 6932342 8721719 8620642
2818 6639767 8743257 8647062
2819 6572830 8703975 8598417
2820 6359839 8708172 8608556
2821 5609041 8748890 8654662
2822 5575323 8836143 8736719
2823 5286744 8918392 8820786
2824 5055487 9009259 8914013
2825 4694932 9103081 9012422
2826 4887303 9151237 9062041
2827 5147816 9186408 9083802
2828 5365917 9164299 9064386
2829 5578808 9139685 9041529
2830 5855402 9123147 9025169
2831 6459998 9071245 8962431
2832 6601151 9007008 8902215
2833 6651906 8938666 8843804
2834 6996485 8885729 8775646
2835 7248567 8786503 8690350
2836 7419976 8731835 8630733
2837 7525985 8687699 8590015
2838 7392115 8674503 8574578
2839 7468528 8664388 8568182
2840 7605045 8623732 8517979
2841 7286964 8674923 8581033
2842 7313712 8732246 8632892
2843 7165626 8745346 8648446
2844 7095152 8839120 8743178
2845 7199868 8854940 8755422
2846 6945723 8915596 8816487
2847 6525895 8929928 8837208
2848 6696479 8925964 8826731
2849 6738439 8936167 8834454
2850 6856148 8916355 8816124
2851 7616741 8877949 8776863
2852 7834596 8839680 8738507
2853 7733165 8786277 8685843
2854 7556419 8716869 8615318
2855 8013692 8664845 8558699
2856 7865467 8600529 8498995
2857 7624720 8588468 8488900
2858 7861890 8601340 8498355
2859 7764610 8588439 8492801
2860 7350746 8628863 8526355
2861 6967600 8644869 8548892
2862 7047961 8695827 8598795
2863 7128384 8755489 8658104
2864 7075085 8827880 8730894
2865 6821852 8882141 8782212
2866 6677426 8979874 8887556
2867 6795022 9015278 8918044
2868 6876310 9038701 8936326
2869 6923542 9025093 8925889
2870 6934708 9012522 8910678
2871 7350681 8920459 8824323
2872 7401194 8902723 8807662
2873 7524724 8810831 8713718
2874 7492715 8758672 8655141
2875 8019121 8713045 8607982
2876 8264047 8645202 8539523
2877 8429794 8598040 8499121
2878 8323447 8574854 8471924
2879 8457127 8535194 8439628
2880 8033371 8573866 8470330
2881 7599040 8621429 8525928
2882 7474313 8690681 8589971
2883 7318732 8743615 8645696
2884 6891310 8800323 8705163
2885 7007795 8871681 8775479
2886 6792747 8920967 8821109
2887 6505717 8964056 8865328
2888 6673082 8975213 8880639
2889 6832431 9001855 8903275
2890 6972520 8953951 8852288
2891 7294264 8934244 8831792
2892 7522958 8857604 8754789
2893 7858966 8805016 8710782
2894 7834206 8757856 8655346
2895 8047872 8693585 8591950
2896 8096097 8628861 8523180
2897 8048339 8629401 8529129
2898 8029386 8637297 8541826
2899 8044088 8614376 8511625
2900 7672769 8637824 8534368
2901 7362951 8670643 8571628
2902 7384887 8752338 8654573
2903 7523628 8826245 8729188
2904 7349710 8901883 8804757
2905 6632778 8956817 8866756
2906 6545970 9026459 8924812
2907 6589787 9063531 8966327
2908 6499074 9051322 8950771
2909 6843220 9059702 8959624
2910 7296091 9064410 8969045
2911 7642234 8990422 8891814
2912 7491053 8916634 8816479
2913 7758568 8843095 8737584
2914 7826290 8723500 8615598
2915 8265834 8671800 8569528
2916 8391806 8620446 8518268
2917 8260920 8614058 8511874
2918 8029357 8623103 8527566
2919 7765422 8630625 8538384
2920 7679833 8618962 8518825
2921 7612964 8623678 8522918
2922 7353624 8707316 8604604
2923 7061033 8753348 8657001
2924 6992086 8824023 8726138
2925 6961248 8890625 8792132
2926 6978530 8921186 8817452
2927 6748157 8975393 8877576
2928 6647836 9029184 8930158
2929 6711303 9013943 8917393
2930 7003877 9029499 8930891
2931 7338471 8962445 8862523
2932 7586960 8898535 8802353
2933 7747160 8842620 8737921
2934 7749317 8782293 8683209
2935 7736491 8756860 8653308
2936 7982392 8696729 8593273
2937 8090094 8641889 8540003
2938 8273380 8617475 8517179
2939 8311938 8555398 8457133
2940 8304382 8553887 8453588
2941 7926315 8601695 8502147
2942 7729790 8680772 8582905
2943 7576037 8744642 8643599
2944 7411169 8782999 8686230
2945 6979356 8834708 8740454
2946 6699159 8912287 8816861
2947 6790598 8977830 8881988
2948 6913037 9002407 8905317
2949 6786843 9004375 8903742
2950 7025034 9019228 8917640
2951 7557260 8992426 8890852
2952 7847922 8924625 8822130
2953 8231140 8853781 8751055
2954 8336850 8776219 8673044
2955 8387640 8671251 8563678
2956 8480036 8596436 8492648
2957 8104810 8570359 8470714
2958 8189809 8557777 8462717
2959 7814429 8585464 8484588
2960 7673421 8617745 8519395
2961 7636253 8682040 8584455
2962 7430879 8708976 8618172
2963 7119418 8733775 8636804
2964 7005030 8841860 8755203
2965 6857289 8929210 8832683
2966 6820084 8974874 8878964
2967 6881814 9064195 8966133
2968 6825392 9079737 8984214
2969 6984254 9109325 9011470
2970 7540806 9063963 8960572
2971 7349020 9031558 8928510
2972 7396264 8943283 8838649
2973 7729712 8880874 8779608
2974 7775488 8797702 8695925
2975 8012534 8725989 8621487
2976 8172526 8675916 8571477
2977 8401866 8606422 8500774
2978 8313523 8584741 8485868
2979 8195103 8590882 8492370
2980 7611172 8595073 8493130
2981 7399994 8624730 8526805
2982 7440308 8695966 8596499
2983 7481738 8790134 8693308
2984 7622700 8801346 8705699
2985 7415422 8851481 8755718
2986 6987069 8897073 8805327
2987 6687716 8980113 8880236
2988 6476674 9023118 8919958
2989 6898995 9044709 8941705
2990 7510454 8987205 8884838
2991 7674308 8919035 8820403
2992 8125734 8844813 8743401
2993 8067923 8771674 8669546
2994 8098524 8696587 8590878
2995 8408149 8621552 8518461
2996 8438722 8611136 8512105
2997 8461585 8586812 8487132
2998 8516777 8557073 8463264
2999 8612860 8560175 8457856
3000 7954909 8598258 8506039
3001 7422152 8623269 8522058
3002 7439600 8711566 8613143
3003 7300576 8756026 8657626
3004 7418386 8810356 8714218
3005 6944323 8873785 8772944
3006 6971810 8938936 8842849
3007 6721272 8979260 8880892
3008 6792976 9001447 8907751
3009 7109212 8975499 8874093
3010 7363534 8964747 8864619
3011 7921173 8932414 8829207
3012 7810597 8865172 8767321
3013 8039295 8794061 8688753
3014 8378086 8720983 8621637
3015 8667250 8653400 8550341
3016 8963781 8573985 8475396
3017 9055766 8550165 8449681
3018 8894957 8514416 8416203
3019 8826895 8504169 8396581
3020 8235418 8532745 8428085
3021 7776122 8577964 8477594
3022 7743324 8610706 8510617
3023 7324877 8680979 8590485
3024 7425229 8797492 8700312
3025 7293735 8875190 8781148
3026 7275900 8912761 8817028
3027 7112781 8946938 8851149
3028 7050075 8969650 8867694
3029 7148708 8956039 8856931
3030 7490058 8928656 8826913
3031 7693249 8902818 8803150
3032 8044559 8857679 8758048
3033 7975015 8789953 8683271
3034 8124071 8712021 8613720
3035 8440234 8658893 8556855
3036 8340838 8607454 8503304
3037 8374119 8580338 8479021
3038 8504990 8565774 8466698
3039 8364525 8565187 8464585
3040 8405537 8573152 8472947
3041 8113082 8638424 8532877
3042 7963403 8673091 8572286
3043 7574621 8754577 8659262
3044 7315376 8808523 8714448
3045 6821801 8879528 8779470
3046 7000882 8933969 8837488
3047 7034592 8977817 8879457
3048 7085984 9010177 8912592
3049 6989682 9021056 8916658
3050 7132999 9000052 8911749
3051 7308936 8968045 8866352
3052 7670525 8914537 8814721
3053 7998100 8863835 8762455
3054 8345279 8795489 8693019
3055 8357353 8733215 8623055
3056 8360954 8683832 8584206
3057 8729736 8629138 8523840
3058 8858651 8566404 8465412
3059 8483337 8558725 8459021
3060 8188631 8569008 8475996
3061 7941206 8618679 8522044
3062 7727749 8684465 8582441
3063 7396664 8744408 8645935
3064 7123107 8805343 8708756
3065 6571034 8878938 8776000
3066 6525683 8952213 8856060
3067 5959746 9021340 8927180
3068 6522462 9067775 8974435
3069 6974118 9080545 8982443
3070 7007719 9048219 8949056
3071 7478223 9001849 8895688
3072 7606022 8922892 8822357
3073 7712987 8856293 8757452
3074 7598071 8777532 8682559
3075 8040740 8752071 8651061
3076 7996809 8692334 8596044
3077 7756028 8632759 8529752
3078 8055171 8619954 8519028
3079 7824861 8579223 8481682
3080 7736906 8601617 8501781
3081 7307430 8655590 8555373
3082 7369266 8715420 8615467
3083 7438109 8766485 8668529
3084 6939513 8827654 8728767
3085 6689861 8862322 8763541
3086 7015526 8924520 8828855
3087 6738510 8997641 8901337
3088 6516744 9021614 8923040
3089 6536388 9015075 8915388
3090 6920003 9013905 8912938
3091 7205470 8963719 8860392
3092 7272979 8847814 8744500
3093 7255727 8815636 8714566
3094 7661215 8753746 8653453
3095 7841661 8728793 8625682
3096 7564983 8700755 8599395
3097 7605776 8690751 8587603
3098 7732374 8662898 8560815
3099 7499988 8653318 8553916
3100 7739563 8651474 8548097
3101 7387547 8675721 8576850
3102 7036682 8757108 8657073
3103 6836734 8814193 8720342
3104 7020792 8854791 8763187
3105 6960633 8895746 8796964
3106 6446426 8978428 8885202
3107 6241949 9038638 8944284
3108 6333572 9029990 8932495
3109 6521227 9071563 8970146
3110 6846678 9010040 8909678
3111 7015151 8959856 8859639
3112 7199722 8926353 8829493
3113 7586417 8865634 8763831
3114 7913998 8766292 8662938
3115 7943822 8717225 8615537
3116 7927441 8682646 8583685
3117 7862021 8700857 8600453
3118 7831179 8705286 8610771
3119 7680064 8694629 8590540
3120 7605834 8690777 8588860
3121 7192192 8708160 8610468
3122 6785800 8783542 8688743
3123 6670269 8846593 8749583
3124 6591889 8903983 8809954
3125 6143938 8959671 8865194
3126 6573124 8984019 8888237
3127 6746893 8998094 8902990
3128 6531606 9025274 8926922
3129 6716075 9033464 8938294
3130 6865693 9042131 8939830
3131 7223508 8982469 8878803
3132 7255125 8908884 8807935
3133 7522341 8870729 8766613
3134 7902540 8795171 8693883
3135 8238893 8726566 8623250
3136 8464695 8661274 8560850
3137 8138653 8636127 8535480
3138 7535094 8649769 8551730
3139 7715305 8674449 8573333
3140 7503021 8682192 8581554
3141 6888160 8727690 8630073
3142 6832976 8786942 8689395
3143 6542007 8862850 8766569
3144 6238539 8944397 8848314
3145 6113635 8980154 8882199
3146 6066103 9039384 8941534
3147 6215178 9062296 8966709
3148 6476841 9050306 8953058
3149 6380762 9039393 8938861
3150 6372883 9037039 8933058
3151 6969220 8969524 8867697
3152 7204217 8944410 8842042
3153 7477290 8857117 8757873
3154 7711467 8789951 8686462
3155 8064313 8730318 8632693
3156 7961179 8670110 8565443
3157 8053408 8597253 8493531
3158 7969812 8595824 8488839
3159 7801948 8586685 8489873
3160 7418492 8603863 8506190
3161 7255420 8652344 8556052
3162 7087571 8708145 8611908
3163 7025452 8789995 8697889
3164 6713735 8845225 8747393
3165 6170424 8935743 8839846
3166 6380371 8980887 8883241
3167 6341741 9043435 8946426
3168 6567167 9083792 8990424
3169 6623218 9070036 8976089
3170 6799067 9023445 8918972
3171 7033441 8954239 8849116
3172 6876819 8898499 8795568
3173 7333655 8813884 8716608
3174 7298770 8772203 8672125
3175 7205924 8728842 8632587
3176 7473989 8687606 8585126
3177 7620474 8643852 8540684
3178 7709409 8611435 8508425
3179 7764543 8603646 8502448
3180 7399231 8613598 8513998
3181 6993623 8662410 8568988
3182 7132348 8731946 8631011
3183 6894774 8811531 8715290
3184 6487723 8886580 8788493
3185 6349062 8951209 8851649
3186 6163515 9007828 8907425
3187 6078667 9041961 8939789
3188 6380423 9037483 8935051
3189 6604243 9033983 8936996
3190 6811573 9015631 8915246
3191 6871888 8945519 8845974
3192 6722716 8888972 8791370
3193 7299730 8831698 8730232
3194 7692897 8752294 8644096
3195 7963921 8682998 8579777
3196 8078851 8615199 8519183
3197 7902894 8584788 8483032
3198 7409579 8590842 8488812
3199 7399593 8572279 8476669
3200 7226634 8594337 8494110
3201 6684768 8679036 8586436
3202 6894276 8772001 8673259
3203 6672824 8840958 8743383
3204 6594089 8884702 8789303
3205 6393740 8965623 8868908
3206 6312922 9017462 8923676
3207 6292889 9035104 8937526
3208 6262435 9075102 8979623
3209 6525222 9089626 8991508
3210 6647576 9058958 8960807
3211 7217899 9020608 8924381
3212 7375618 8958359 8857137
3213 7239779 8910422 8812494
3214 7639402 8850077 8749929
3215 7766191 8783436 8684834
3216 7687426 8739787 8638619
3217 7970760 8684506 8586521
3218 7733033 8658805 8554322
3219 7674603 8646031 8545990
3220 7176597 8641132 8541384
3221 6931937 8720535 8629721
3222 6827869 8785007 8695559
3223 6518662 8835088 8740710
3224 6461539 8934855 8836923
3225 6100803 8973858 8877638
3226 6213416 8999676 8905800
3227 6129806 9035874 8936647
3228 6159357 9047308 8950853
3229 6461844 9053568 8957108
3230 6644030 9068678 8967851
3231 7027994 9008740 8911936
3232 7000165 8969009 8865498
3233 7038665 8894111 8796146
3234 7257744 8843459 8742442
3235 7780528 8756159 8657518
3236 7893565 8707583 8607465
3237 8080564 8665480 8563561
3238 7955339 8607029 8502616
3239 7481884 8603558 8503792
3240 7092754 8583260 8483619
3241 7027445 8670404 8570056
3242 7138004 8749248 8652064
3243 6865940 8804618 8701552
3244 6684678 8844433 8743749
3245 6217799 8913894 8814417
3246 6139440 8990532 8899213
3247 6522982 9047264 8952311
3248 6294364 9045241 8940602
3249 6313393 9057584 8956849
3250 6674102 9046659 8945224
3251 7024526 9012699 8910139
3252 7115934 8975917 8876882
3253 7246982 8920388 8820823
3254 7296755 8881304 8778058
3255 7618663 8789062 8687683
3256 7488050 8746292 8648451
3257 7750745 8715938 8619043
3258 7701960 8690909 8587645
3259 7821347 8645332 8543957
3260 7616227 8622680 8515067
3261 6976589 8646887 8550727
3262 6863099 8719448 8621767
3263 6804730 8765498 8666421
3264 6666636 8865705 8764748
3265 6204140 8924130 8834293
3266 6276747 8980844 8878640
3267 6205964 8998067 8899782
3268 6026910 9060149 8968364
3269 6328529 9098794 9003370
3270 6382244 9094059 8998551
3271 6548499 9037366 8937362
3272 6713320 8982924 8884000
3273 7013002 8930829 8828502
3274 7455603 8859309 8762775
3275 7713303 8814542 8711854
3276 7905886 8744095 8649063
3277 8052108 8693330 8590972
3278 7925450 8637283 8537153
3279 7868107 8613543 8514247
3280 8131265 8639768 8540561
3281 7482918 8661371 8563508
3282 6842873 8734991 8636060
3283 6351263 8817121 8716251
3284 6032182 8883514 8784661
3285 5815592 8965512 8869517
3286 5990144 9021942 8927865
3287 6117940 9068791 8971053
3288 6493687 9109940 9011750
3289 6582533 9088283 8985286
3290 6770183 9044509 8936122
3291 7067993 8982411 8876344
3292 7108233 8903547 8806745
3293 7510574 8870667 8771901
3294 7506232 8802890 8702270
3295 7503512 8765285 8660826
3296 7348458 8743933 8640976
3297 7716760 8707737 8611045
3298 7799512 8707822 8604272
3299 7501382 8683317 8584168
3300 7367609 8699190 8603845
3301 7331912 8748144 8649167
3302 6933002 8824957 8733382
3303 6458657 8923912 8831061
3304 6345519 9017256 8924984
3305 6469840 9076259 8979296
3306 6411719 9109540 9010359
3307 5912303 9103989 9006279
3308 6140634 9139153 9040345
3309 6347547 9116062 9019133
3310 6438317 9075532 8976613
3311 6917475 9026099 8924183
3312 7046598 8950752 8850121
3313 7488456 8862013 8756999
3314 7734203 8823097 8725619
3315 7765208 8783435 8676621
3316 7305251 8745027 8642961
3317 7239388 8748001 8648929
3318 7204627 8751946 8650769
3319 7415350 8756382 8658482
3320 7315639 8772006 8676483
3321 6871539 8800863 8700516
3322 6672119 8846954 8753268
3323 6284030 8878864 8783467
3324 6034047 8939062 8836830
3325 6039789 8987248 8894738
3326 6401019 9024869 8922644
3327 6475942 9018882 8924512
3328 6568379 9049672 8949912
3329 6549711 9026942 8927315
3330 6391664 9031946 8931648
3331 6750325 8956116 8856666
3332 7102805 8886671 8785831
3333 7201581 8815549 8716881
3334 7236396 8788384 8685067
3335 7383126 8722046 8617686
3336 7412284 8696972 8596565
3337 7483551 8672131 8570180
3338 7250246 8661152 8554976
3339 7253911 8657568 8558271
3340 7213056 8684204 8585257
3341 6915789 8723945 8625607
3342 6896937 8784338 8683101
3343 6585086 8846929 8746352
3344 6300885 8916486 8822014
3345 6038082 8988539 8892118
3346 6179228 9015776 8916263
3347 5851468 9028761 8925641
3348 5949320 9018402 8919814
3349 6053406 9028034 8924573
3350 6576856 9004107 8902236
3351 6718395 8974001 8874859
3352 6895528 8920159 8814222
3353 7063116 8823113 8719309
3354 7088951 8741398 8643275
3355 7494038 8695437 8593558
3356 7694611 8639862 8539001
3357 7794703 8606680 8506151
3358 7622752 8587657 8488747
3359 7383551 8594278 8498984
3360 7149542 8618418 8519034
3361 6748469 8658506 8555686
3362 6395294 8713183 8621600
3363 6191278 8812857 8713305
3364 6317264 8851525 8754982
3365 6306174 8891655 8795466
3366 6157716 8945067 8848950
3367 6088059 8980456 8882429
3368 6591311 9039355 8942893
3369 6588055 9036321 8938191
3370 6665718 9043554 8944684
3371 6794373 8988989 8885538
3372 6994294 8887572 8788989
3373 6999118 8833953 8732316
3374 7196298 8750491 8645215
3375 7469858 8687736 8586944
3376 7414426 8664429 8556017
3377 7528796 8573252 8469995
3378 7389233 8536300 8434015
3379 7571583 8505336 8397501
3380 7408893 8533365 8433126
3381 7182033 8585624 8487856
3382 7149549 8656298 8561037
3383 6837340 8719573 8616721
3384 6421238 8785907 8684365
3385 6268372 8862417 8774064
3386 6665340 8901895 8806077
3387 6455973 8916062 8816703
3388 6718184 8929406 8828263
3389 7013605 8904817 8811240
3390 6922931 8888565 8787012
3391 6851913 8848264 8746372
3392 6956011 8807101 8710194
3393 7182919 8767259 8660020
3394 7401423 8706508 8607674
3395 7665152 8636385 8533747
3396 7627437 8568017 8465901
3397 7851020 8535797 8433585
3398 7904032 8536436 8431896
3399 7757149 8516279 8416587
3400 7513166 8498235 8399281
3401 7317325 8584513 8490419
3402 7438976 8643154 8542352
3403 7282621 8688659 8593159
3404 6911561 8780971 8681169
3405 6709321 8845765 8745684
3406 7071462 8851614 8752046
3407 7122724 8870404 8772994
3408 7254777 8849100 8752508
3409 7461805 8864621 8766118
3410 7934764 8817901 8719711
3411 8344554 8773596 8670172
3412 8269301 8714458 8613474
3413 8378735 8661702 8562388
3414 8594896 8609464 8506528
3415 8772665 8553702 8450578
3416 8754465 8491795 8392006
3417 8906630 8482716 8382458
3418 8861510 8510593 8413526
3419 8702460 8555990 8461498
3420 8023827 8601014 8505028
3421 7571915 8643088 8546497
3422 7351202 8685080 8586461
3423 7277768 8714532 8619244
3424 6929934 8778320 8677480
3425 6400339 8834417 8737474
3426 5930125 8876572 8780375
3427 6052830 8953521 8853682
3428 5817895 8968046 8870658
3429 5982477 8939465 8841104
3430 5879020 8937520 8837414
3431 5967433 8898738 8800566
3432 5847974 8852200 8749800
3433 5830843 8817436 8712815
3434 6060506 8763592 8659749
3435 6728712 8694307 8590620
3436 6418840 8655150 8558692
3437 6284411 8617973 8512339
3438 5839199 8598373 8498370
3439 5648533 8628838 8522084
3440 5935914 8627993 8529056
3441 5579036 8682485 8586142
3442 5331717 8750830 8655169
3443 5197416 8820460 8723472
3444 4816019 8911236 8814415
3445 4646334 9007568 8904979
3446 4941486 9064902 8964998
3447 4977475 9107383 9007486
3448 4950210 9131280 9036729
3449 5090618 9095002 8994159
3450 5584908 9090749 8988978
3451 5889435 9020149 8919165
3452 6113026 8963869 8862451
3453 6663724 8893685 8789150
3454 6969819 8830051 8730284
3455 7375166 8736328 8629580
3456 7299119 8668249 8571944
3457 7350893 8632607 8535355
3458 7264220 8587374 8488982
3459 7199485 8607542 8506094
3460 6910903 8610281 8511860
3461 6802804 8660096 8561193
3462 6542231 8733454 8631510
3463 6223178 8806309 8708165
3464 6167044 8896624 8801238
3465 5968492 8954782 8857433
3466 5893876 8997679 8898168
3467 5775126 9065260 8968256
3468 6270562 9094871 8996722
3469 6273999 9094135 8997545
3470 6299207 9083290 8984754
3471 6632592 9032119 8928324
3472 6777096 8958625 8860148
3473 6921513 8876074 8770114
3474 7143673 8844607 8744469
3475 7455010 8755081 8647071
3476 7511822 8699206 8595562
3477 7498917 8624212 8519980
3478 7476254 8602869 8497090
3479 7346707 8591154 8485952
3480 6968256 8611304 8508586
3481 6831606 8667152 8570027
3482 6901912 8742105 8648523
3483 6824136 8788112 8696002
3484 6268574 8851057 8751382
3485 5973704 8930114 8834195
3486 5907320 9010308 8914834
3487 5692396 9059640 8963392
3488 5935633 9086080 8986898
3489 5991434 9097624 9002219
3490 6222284 9066572 8966582
3491 6775109 8995384 8890685
3492 6754620 8952898 8856199
3493 6909991 8902541 8802195
3494 7288870 8832930 8726353
3495 7561056 8745269 8643305
3496 7503210 8689468 8585520
3497 7689095 8644564 8542996
3498 7671877 8616251 8515795
3499 7478157 8623713 8522807
3500 6923589 8629858 8527056
3501 6527623 8688522 8595070
3502 6521196 8798128 8696160
3503 6519546 8849899 8753937
3504 6458057 8931424 8834801
3505 6157364 8964736 8864414
3506 6179259 8982131 8880443
3507 5999428 8985326 8892519
3508 6311559 9001197 8902552
3509 6620210 9009170 8910434
3510 6541840 9003703 8904751
3511 6989576 8975757 8871335
3512 7186223 8928665 8830879
3513 7028658 8874462 8770465
3514 7099668 8814543 8711044
3515 7376290 8774089 8671658
3516 7612242 8720129 8617451
3517 7867318 8692790 8592737
3518 7448213 8693714 8593950
3519 7163670 8725055 8621729
3520 7018118 8743204 8635941
3521 6806703 8761347 8664343
3522 6926818 8792605 8691429
3523 6792676 8845563 8745691
3524 6351887 8918237 8826702
3525 6014598 8966804 8868074
3526 6003270 8997596 8900149
3527 5881011 9017570 8918307
3528 6157772 9008797 8910281
3529 6193898 9000329 8898711
3530 6499787 8997430 8896211
3531 6817547 8976838 8874091
3532 6959369 8919617 8815730
3533 6960196 8880618 8776810
3534 7023956 8807583 8704465
3535 7334854 8760222 8660001
3536 7429034 8717901 8614895
3537 7720345 8674671 8573192
3538 7592283 8673207 8572185
3539 7597583 8652032 8550304
3540 7300371 8666127 8567208
3541 6839695 8730630 8627586
3542 6699338 8791143 8694387
3543 6590290 8843876 8742734
3544 6145623 8897983 8802956
3545 6011234 8969528 8874947
3546 6194761 8969416 8869794
3547 6023410 9001456 8902039
3548 6185241 9010983 8919332
3549 6241028 9039131 8939041
3550 6496640 9009932 8910912
3551 6821777 8997232 8899422
3552 7134244 8956781 8849147
3553 7505705 8855659 8757057
3554 7516068 8790774 8691086
3555 7610993 8762909 8662317
3556 7410513 8717172 8611961
3557 7351786 8664004 8558928
3558 7143832 8661320 8560973
3559 7018208 8683743 8579388
3560 7315274 8695115 8594928
3561 7238797 8731453 8638519
3562 6807262 8804375 8707446
3563 6345266 8849403 8754326
3564 6161746 8928117 8825151
3565 6371088 8976491 8875797
3566 6575295 8987391 8892910
3567 6221565 9038413 8943323
3568 6270029 9089599 8990362
3569 6447915 9097995 8995174
3570 6970371 9034915 8932492
3571 7074189 8981832 8876001
3572 6961570 8906029 8803701
3573 7354869 8820985 8720226
3574 7436488 8761818 8656966
3575 7736051 8683681 8581060
3576 7631160 8658489 8555407
3577 7690975 8621849 8518149
3578 7479126 8606713 8504811
3579 7455982 8643920 8547625
3580 6992391 8671686 8570011
3581 6932720 8727875 8629329
3582 6829140 8773641 8678368
3583 6332634 8814863 8719618
3584 5799570 8898359 8804899
3585 5719838 8976939 8877706
3586 5991294 9005257 8906977
3587 5960096 9031116 8931236
3588 6406044 9042827 8940829
3589 6282656 9014045 8909580
3590 6523485 8965136 8865809
3591 6984178 8872372 8772643
3592 7397235 8823146 8718126
3593 7520901 8753685 8653630
3594 7589858 8730620 8630735
3595 7838632 8648258 8547520
3596 8145872 8597053 8492277
3597 8332118 8557403 8457217
3598 8146805 8526864 8426258
3599 7761851 8535628 8439519
3600 7223464 8607116 8503740
3601 6809595 8672878 8574045
3602 6568947 8762488 8669203
3603 6340379 8845640 8748224
3604 6224371 8898378 8803852
3605 6108021 8980402 8880896
3606 6430655 9013330 8917215
3607 6288328 9056902 8959282
3608 6459306 9048274 8952570
3609 6503513 9019822 8924707
3610 6771453 9005569 8907689
3611 7146116 8954945 8853375
3612 7281111 8893794 8789635
3613 7326323 8837918 8737078
3614 7672143 8744313 8644179
3615 7979159 8688951 8584931
3616 7861277 8636911 8534556
3617 8011914 8580807 8476708
3618 7734706 8573225 8473786
3619 7698828 8622563 8519742
3620 7509332 8638520 8533451
3621 7222175 8660534 8559563
3622 6997039 8712289 8620938
3623 6636688 8763393 8668495
3624 6351542 8839774 8743416
3625 6365060 8914488 8816201
3626 6470968 8951188 8850064
3627 6332055 8960711 8862149
3628 6545673 8982103 8887385
3629 6721790 8982931 8886630
3630 6921040 8973492 8874871
3631 7102337 8940151 8841156
3632 7201573 8867524 8770649
3633 7682813 8783403 8680065
3634 7807080 8688407 8589908
3635 7904450 8619213 8513132
3636 7842905 8554330 8451249
3637 8023270 8514292 8414549
3638 7751459 8496945 8393953
3639 7564506 8542940 8448711
3640 7343017 8571067 8470356
3641 7325222 8594414 8494009
3642 6995013 8680307 8583495
3643 6782473 8755608 8659967
3644 6480001 8819242 8720340
3645 6226434 8897416 8800210
3646 6569160 8964836 8863429
3647 6736722 8972782 8874107
3648 6898499 8950084 8851305
3649 7016491 8924340 8824883
3650 7206578 8923379 8825094
3651 7406671 8874900 8770769
3652 7342842 8813716 8708386
3653 7448208 8767688 8663848
3654 7537444 8711076 8606102
3655 7735714 8652027 8550549
3656 7627267 8610032 8511278
3657 7751578 8606167 8503119
3658 7610411 8567317 8467100
3659 7431437 8571580 8476272
3660 7099018 8615247 8515859
3661 6986009 8646635 8543468
3662 7046033 8691798 8592786
3663 6823028 8766521 8663540
3664 6642488 8828815 8731391
3665 6420147 8878832 8778653
3666 6425383 8926963 8825536
3667 6239881 8956778 8865026
3668 6476094 8986975 8887199
3669 6678071 9011530 8915350
3670 6903402 8995558 8893804
3671 6953885 8950688 8853183
3672 7095149 8902306 8801068
3673 7373127 8827160 8726179
3674 7499605 8749159 8647685
3675 7832663 8706127 8599314
3676 7764016 8637929 8534393
3677 7727297 8611058 8510868
3678 7304974 8616800 8517971
3679 7182110 8602368 8502274
3680 7333027 8634976 8537218
3681 6890268 8678123 8584610
3682 6863186 8738457 8642048
3683 6517691 8812897 8718884
3684 6272193 8869426 8773808
3685 5992469 8939028 8843212
3686 6130922 9006497 8908414
3687 6240300 9042853 8942991
3688 6246704 9000186 8896472
3689 6558415 8975592 8874399
3690 6624930 8943362 8840676
3691 6662537 8877995 8777881
3692 6869088 8840915 8745526
3693 7181944 8765154 8660794
3694 7370440 8689602 8589830
3695 7410752 8645955 8542326
3696 7286080 8617047 8512971
3697 7559313 8560857 8460963
3698 7383300 8554928 8452873
3699 7247512 8587659 8489698
3700 7125530 8593914 8493691
3701 6710711 8640817 8538127
3702 6577031 8719645 8624345
3703 6441588 8776660 8680187
3704 6478581 8834457 8735471
3705 6288606 8904518 8806531
3706 6054326 8950180 8849521
3707 5862406 9031019 8936418
3708 5789323 9035878 8936656
3709 6023088 9042612 8941764
3710 6286493 9023347 8920485
3711 6517198 8977154 8878270
3712 6640730 8918951 8812076
3713 6979707 8854881 8753077
3714 7287537 8777078 8676406
3715 7432549 8700867 8598829
3716 7293601 8645254 8541495
3717 7400816 8607611 8505415
3718 7230099 8568413 8472094
3719 7028396 8605580 8505235
3720 6824639 8648838 8551329
3721 6569586 8680942 8582214
3722 6390000 8703824 8603765
3723 5941458 8762398 8661880
3724 5880345 8833615 8736892
3725 5682565 8915412 8818808
3726 5847143 8937179 8840634
3727 5885970 8954549 8857845
3728 6211443 8970211 8872975
3729 6445644 8950716 8847996
3730 6684521 8918093 8817390
3731 6910402 8859975 8757653
3732 6926282 8849813 8746374
3733 6819763 8805188 8701978
3734 6896766 8745982 8644139
3735 6869683 8685701 8583432
3736 6986251 8663447 8560140
3737 7241777 8628414 8525860
3738 7190327 8617046 8511930
3739 7101052 8608715 8510176
3740 7036620 8637834 8538639
3741 6726124 8670227 8570026
3742 6496628 8706211 8608857
3743 6310189 8777904 8676280
3744 6131078 8842300 8740437
3745 5928605 8897643 8793166
3746 5895042 8932749 8833575
3747 5990165 8962826 8863837
3748 6204187 8968922 8869339
3749 6144067 8948441 8849353
3750 6235827 8950052 8851363
3751 6354565 8901071 8795427
3752 5942938 8859659 8758875
3753 6290382 8805827 8703977
3754 6627705 8739098 8636582
3755 7133266 8668079 8560839
3756 7139533 8596809 8501181
3757 7253367 8589544 8487405
3758 7159175 8573883 8471241
3759 7185782 8595835 8495685
3760 6915152 8623519 8522599
3761 6622785 8664613 8566853
3762 6188444 8718001 8622262
3763 5975770 8798614 8697891
3764 6178670 8881577 8784272
3765 6024802 8926863 8826675
3766 6107497 8925716 8825038
3767 5719522 8952470 8856288
3768 6015021 8972399 8871701
3769 6338778 9003626 8900090
3770 6645060 8984844 8882684
3771 6962513 8928859 8822990
3772 6993337 8827342 8724349
3773 6561069 8790336 8688002
3774 6524958 8720611 8617416
3775 7216488 8689835 8585862
3776 7064489 8623987 8524784
3777 7265670 8636340 8535469
3778 6923748 8619526 8514420
3779 6657148 8631418 8525854
3780 6560727 8663550 8567349
3781 6210869 8731901 8633148
3782 6055008 8779087 8679025
3783 5981083 8839239 8736633
3784 5827480 8888799 8795065
3785 5515422 8939540 8844659
3786 5622954 9021328 8917439
3787 5657442 9020742 8922812
3788 6031290 9005027 8908620
3789 6046473 8998483 8896057
3790 6294295 8954185 8851824
3791 6694806 8903334 8799787
3792 6764540 8885945 8787812
3793 6893612 8812809 8710115
3794 6987894 8740980 8636502
3795 7244352 8651015 8545961
3796 7149563 8621168 8521477
3797 7319240 8606604 8502689
3798 7187218 8557979 8454456
3799 7002835 8569943 8473433
3800 6696466 8604583 8503976
3801 6417857 8659224 8563700
3802 6628765 8751442 8650405
3803 6561918 8827283 8728379
3804 6271836 8870242 8774551
3805 6205387 8911250 8816738
3806 6043375 8973880 8875760
3807 5830518 9016503 8916747
3808 6072001 9024596 8924378
3809 5776119 9002292 8903254
3810 6103403 8935748 8836596
3811 6561123 8891193 8789301
3812 6758485 8852773 8749539
3813 6954226 8769856 8671214
3814 7097586 8704441 8598795
3815 7328049 8662083 8562027
3816 7211372 8626988 8533441
3817 7223293 8656216 8551331
3818 7315088 8650865 8549623
3819 7191176 8653186 8555756
3820 6889786 8666153 8564558
3821 6662398 8741036 8642416
3822 6205535 8756378 8656641
3823 5833359 8803981 8700553
3824 5811474 8850005 8748054
3825 5765698 8910955 8814026
3826 6052500 8919810 8825694
3827 5754132 8983704 8887340
3828 5800645 9006044 8904798
3829 5960236 9035200 8931975
3830 6719050 8994484 8896065
3831 7079576 8932847 8828739
3832 7093301 8874976 8773177
3833 7170280 8809881 8710508
3834 7474725 8729095 8624770
3835 7743101 8671213 8570880
3836 7556528 8619271 8517002
3837 7510062 8607167 8509544
3838 6948923 8601694 8498637
3839 6741162 8594408 8501774
3840 6362781 8626390 8528328
3841 6290273 8696704 8596093
3842 6463121 8733086 8630315
3843 5947341 8802780 8700448
3844 5700384 8867939 8766477
3845 5454992 8927868 8828629
3846 5755740 8984879 8882797
3847 5666822 9008769 8905037
3848 6100969 9005609 8903082
3849 6029461 8963370 8860517
3850 6144769 8933022 8832307
3851 6542096 8864123 8765838
3852 6461966 8847177 8741228
3853 6533769 8798125 8692207
3854 7156534 8695420 8591822
3855 7288528 8640196 8539003
3856 7273514 8616087 8513597
3857 7287899 8590355 8485888
3858 7161902 8584646 8481360
3859 7062626 8595163 8490956
3860 6754783 8632947 8535467
3861 6747207 8675716 8579079
3862 6397758 8729736 8631599
3863 6105258 8776577 8677907
3864 5860778 8860761 8764123
3865 5528307 8935523 8836688
3866 5738576 8973168 8875194
3867 5618811 9010517 8914508
3868 5679012 9025483 8928193
3869 5805445 9057372 8958990
3870 6363578 9045339 8937151
3871 6581581 8958097 8853446
3872 6482090 8876669 8771697
3873 6842380 8802288 8694630
3874 6962869 8731927 8636896
3875 6991890 8648898 8543927
3876 7024112 8640159 8538701
3877 7200238 8561261 8454041
3878 6998928 8529692 8429470
3879 7042403 8560833 8465348
3880 6951123 8591620 8489424
3881 6742799 8652167 8555904
3882 6479858 8691014 8588399
3883 6098937 8735876 8637492
3884 5837827 8825919 8728256
3885 5835553 8873069 8773409
3886 5942599 8895698 8798918
3887 5942790 8929115 8828629
3888 6144231 8951302 8847636
3889 6119287 8944031 8842044
3890 6211953 8927583 8827082
3891 6527062 8885380 8781409
3892 6668644 8845399 8745418
3893 6697764 8795864 8693840
3894 6975114 8725268 8619267
3895 7222920 8653069 8547153
3896 7118373 8616364 8519352
3897 7422173 8558046 8453196
3898 7243993 8573974 8461103
3899 6994620 8551810 8451196
3900 6695149 8576571 8479113
3901 6589005 8635670 8541316
3902 6489370 8747151 8648870
3903 6361665 8813972 8713817
3904 6085649 8853613 8754204
3905 5841391 8919983 8822951
3906 5903740 8972646 8873803
3907 5581303 9038848 8944987
3908 5661640 9083672 8983792
3909 5858611 9049430 8951709
3910 6277426 8984459 8879850
3911 6585356 8955300 8850163
3912 6635899 8873560 8769371
3913 6836729 8817999 8714882
3914 7035034 8747941 8640157
3915 7355789 8689512 8585909
3916 7312177 8649071 8542139
3917 7543894 8602381 8506568
3918 7187094 8643284 8536581
3919 7161753 8660657 8563357
3920 6656353 8711901 8608776
3921 6370547 8763909 8661891
3922 6329070 8790602 8687464
3923 6253504 8812544 8712410
3924 6150884 8847471 8752601
3925 6126200 8893249 8796295
3926 6202775 8917157 8815460
3927 5961297 8960899 8864943
3928 5814153 8979424 8881462
3929 5798639 8966413 8865470
3930 6155254 8969306 8861553
3931 6443088 8922533 8821895
3932 6509282 8884135 8780701
3933 6471273 8796524 8693721
3934 6547413 8710182 8604680
3935 6876702 8682498 8582190
3936 7022676 8649463 8546117
3937 7405194 8632358 8526746
3938 7134290 8612756 8515244
3939 6750604 8644445 8546939
3940 6060055 8677780 8572512
3941 5987324 8730908 8627002
3942 6099853 8749619 8648411
3943 6180803 8782810 8684860
3944 5785273 8833755 8736221
3945 5581325 8886004 8783829
3946 5759224 8923542 8827355
3947 5610168 8944018 8847860
3948 5784148 8960724 8859737
3949 5731590 8972229 8871137
3950 5999978 8937011 8837878
3951 6137370 8864620 8762906
3952 6389193 8839085 8736051
3953 6493166 8779462 8673833
3954 6695162 8712185 8602784
3955 7012682 8638317 8534886
3956 6735722 8593349 8487606
3957 6995976 8547871 8445335
3958 6862659 8517709 8418936
3959 6717728 8520875 8415270
3960 6225345 8561181 8456817
3961 6055587 8603466 8507677
3962 6184308 8674698 8567593
3963 6286742 8738242 8636365
3964 5764371 8807887 8708835
3965 5639646 8860643 8763140
3966 5741792 8907279 8809134
3967 5591497 8959397 8862737
3968 5869189 8998798 8907948
3969 5731886 9040376 8938667
3970 5966754 9034176 8941095
3971 6424613 8965380 8861723
3972 6473909 8888106 8781720
3973 6728011 8845948 8739153
3974 6881913 8756141 8655354
3975 7040686 8680408 8577071
3976 7024091 8623823 8519516
3977 7329802 8598868 8497855
3978 6938931 8600499 8496645
3979 6930708 8622866 8522644
3980 6521027 8623455 8520098
3981 6154084 8675220 8575627
3982 5838648 8696787 8601172
3983 5980179 8750127 8650208
3984 5955113 8808926 8708237
3985 5645159 8892141 8791470
3986 5678077 8953870 8852794
3987 5505470 9010994 8914615
3988 5704670 9027820 8929234
3989 5863782 8991350 8890751
3990 5978293 8959984 8855052
3991 6211152 8921074 8818567
3992 6472641 8854449 8749947
3993 6730054 8800832 8699436
3994 6893149 8709066 8600644
3995 6935722 8637452 8535528
3996 6935178 8604654 8496150
3997 7317317 8544991 8440142
3998 7137627 8499306 8400813
3999 6815150 8508053 8407864
4000 6501520 8534434 8431600
4001 6488493 8586870 8492786
4002 6347558 8694546 8601611
4003 6051102 8764346 8670076
4004 6106900 8829371 8731709
4005 5611099 8909989 8810816
4006 5440783 8963181 8862564
4007 5457062 8997814 8894529
4008 5881170 9006790 8903087
4009 6309089 8985153 8880680
4010 6719994 8932404 8827468
4011 7164424 8873036 8770006
4012 7290212 8809184 8701978
4013 7505376 8728607 8628603
4014 7690091 8629204 8519175
4015 7821762 8559294 8454887
4016 8072213 8504176 8398037
4017 8236669 8470064 8369492
4018 7799954 8486101 8391091
4019 7781603 8504906 8408735
4020 7293799 8563934 8465147
4021 7175756 8648155 8551973
4022 7355967 8683948 8584300
4023 7283035 8705591 8609074
4024 7022312 8757592 8655774
4025 6870977 8833040 8736211
4026 6882272 8871102 8772222
4027 6784900 8920955 8821510
4028 6856339 8907778 8809943
4029 7062371 8876034 8772649
4030 7355873 8852612 8749888
4031 7470226 8796949 8694520
4032 7500165 8744829 8640422
4033 7975978 8701892 8595449
4034 7906759 8640473 8537024
4035 7932282 8575676 8476133
4036 7819190 8546951 8445323
4037 7665118 8510574 8405259
4038 6934336 8496064 8390506
4039 6388225 8532503 8433280
4040 6014604 8561734 8460251
4041 5304318 8622125 8530702
4042 4930436 8720930 8616366
4043 4613049 8812698 8716699
4044 4163652 8929065 8833525
4045 3883253 8998331 8897033
4046 4029072 9054642 8949294
4047 3762833 9074607 8976380
4048 3792086 9125164 9020789
4049 3853083 9136496 9036326
4050 4244705 9107271 9000146
4051 4619126 9049884 8943431
4052 4764695 9021082 8913276
4053 4962315 8934853 8827169
4054 5110617 8865526 8759842
4055 5408002 8799623 8692171
4056 5395763 8739889 8637301
4057 5518430 8708250 8608173
4058 5340187 8690441 8590344
4059 5476686 8697842 8597211
4060 5411158 8709330 8602896
4061 5378393 8738268 8642381
4062 5604867 8759437 8656537
4063 5717622 8790913 8695512
4064 5299755 8854308 8757877
4065 5098408 8929076 8823726
4066 5194955 8992130 8893036
4067 5166379 8991293 8893618
4068 5274336 9006232 8899701
4069 5397025 9024223 8921325
4070 5761714 8996505 8902036
4071 6189415 8930915 8823394
4072 6281316 8843208 8741619
4073 6292785 8774247 8667370
4074 6384799 8707373 8600121
4075 6932475 8642342 8541945
4076 7124927 8606906 8507336
4077 7375475 8585516 8481159
4078 6981078 8584385 8480220
4079 6571607 8591019 8488487
4080 6132978 8629404 8526708
4081 6014709 8676717 8575457
4082 5975543 8748316 8652424
4083 5785427 8808076 8704879
4084 5539283 8849674 8750786
4085 5469411 8909705 8811410
4086 5784907 8955154 8854313
4087 5638867 8970514 8871798
4088 5664161 9001676 8904602
4089 5855829 9018933 8919681
4090 6145812 9003519 8905282
4091 6216581 8972885 8869542
4092 6269330 8926156 8820967
4093 6441237 8857223 8758583
4094 6709690 8759280 8650480
4095 7155219 8651537 8547735
4096 7399100 8597036 8490971
4097 7441941 8551098 8448083
4098 7108605 8544617 8440344
4099 6839353 8551791 8448225
4100 5769811 8599439 8502829
4101 5910551 8725292 8628001
4102 6042874 8762059 8663746
4103 6115696 8804526 8710531
4104 5944432 8874779 8771484
4105 5663069 8947763 8852831
4106 5445733 9001523 8903157
4107 5313456 9069477 8971801
4108 5502124 9078380 8979163
4109 5486554 9068045 8964626
4110 5651153 9014188 8912266
4111 6326196 8965233 8863576
4112 6970882 8889166 8784305
4113 6991439 8861241 8756937
4114 6878539 8792334 8685253
4115 6983006 8727058 8623538
4116 7192669 8675481 8576003
4117 7100043 8631042 8530327
4118 6858133 8625683 8520385
4119 7253255 8641993 8540969
4120 6742514 8694373 8591383
4121 6414971 8758472 8654575
4122 6041008 8776805 8673802
4123 5917816 8842556 8743186
4124 5950917 8913698 8811888
4125 5854162 8931065 8833333
4126 5832598 8962953 8864748
4127 5603171 8983383 8887441
4128 5714196 8998338 8897595
4129 5827873 8942178 8843327
4130 6134122 8925738 8828115
4131 6605922 8896961 8793600
4132 6904435 8863061 8764196
4133 7053536 8807851 8708079
4134 6923263 8721542 8617841
4135 7096852 8684548 8580976
4136 6961367 8637986 8533992
4137 7103865 8630195 8530158
4138 7004763 8627533 8527543
4139 6856559 8612529 8515554
4140 6338865 8618732 8514013
4141 6276989 8682332 8587200
4142 6088047 8717434 8615955
4143 5923972 8790267 8689366
4144 5661591 8874664 8776166
4145 5654249 8956218 8858373
4146 5915108 8977852 8880501
4147 5674413 9002261 8904529
4148 5672458 9021705 8919381
4149 6019096 9003741 8902709
4150 6078789 8959802 8858000
4151 6337820 8872102 8767254
4152 6544237 8837002 8735656
4153 6536087 8775968 8671194
4154 7014233 8713303 8610523
4155 7540827 8650853 8550685
4156 7260990 8605642 8504539
4157 7109487 8587830 8488370
4158 6772694 8579854 8476928
4159 6749108 8595195 8493609
4160 6564086 8622369 8521315
4161 6342377 8683483 8583157
4162 6185428 8731387 8634586
4163 6074178 8792268 8700223
4164 5780153 8876054 8775430
4165 5563456 8922534 8823342
4166 5755324 8972306 8873442
4167 5887315 9001796 8901490
4168 6056978 9009422 8909520
4169 5952308 9033885 8938189
4170 6327248 9013443 8911190
4171 6790096 8926107 8823245
4172 6986375 8873998 8768541
4173 7048701 8780694 8677533
4174 6792850 8697200 8595349
4175 6817127 8637649 8532758
