1 2132 2298 2361
2 2141 2293 2341
3 2155 2164 2202
4 2153 1940 1972
5 2159 1760 1791
6 2159 1503 1533
7 2174 1434 1469
8 2166 1527 1563
9 2179 1719 1744
10 2187 1817 1829
11 2195 1840 1837
12 2187 1834 1845
13 2197 1873 1877
14 2202 1914 1913
15 2208 1978 1973
16 2209 2104 2093
17 2195 2214 2219
18 2193 2236 2241
19 2188 2212 2218
20 2186 2218 2232
21 2201 2244 2244
22 2214 2325 2313
23 2215 2283 2267
24 2216 2348 2334
25 2231 2367 2342
26 2228 2332 2305
27 2239 2234 2187
28 2246 2094 2041
29 2263 2055 1994
30 2250 2034 1976
31 2246 2086 2032
32 2226 2083 2054
33 2222 2176 2155
34 2227 2200 2172
35 2237 2173 2132
36 2251 2095 2042
37 2234 2076 2039
38 2247 2190 2142
39 2234 2225 2199
40 2224 2348 2332
41 2207 2377 2371
42 2188 2350 2356
43 2185 2330 2339
44 2158 2131 2159
45 2138 1974 2033
46 2122 1886 1952
47 2109 1738 1824
48 2086 1579 1683
49 2079 1563 1679
50 2065 1600 1731
51 2075 1696 1817
52 2073 1743 1869
53 2085 1778 1893
54 2102 1824 1915
55 2116 1907 1992
56 2116 1899 1979
57 2125 1897 1967
58 2151 1898 1948
59 2146 1856 1908
60 2143 1818 1867
61 2138 1870 1930
62 2145 2156 2208
63 2159 2240 2280
64 2153 2236 2281
65 2141 2114 2157
66 2133 1888 1947
67 2140 1698 1741
68 2129 1550 1615
69 2135 1618 1683
70 2122 1722 1795
71 2120 1815 1894
72 2118 1832 1912
73 2114 1849 1932
74 2120 1862 1935
75 2125 1948 2018
76 2131 2040 2105
77 2128 1997 2065
78 2139 1940 1993
79 2138 1903 1965
80 2132 1894 1956
81 2144 1917 1974
82 2142 1905 1958
83 2137 1854 1916
84 2130 1767 1832
85 2124 1778 1852
86 2112 1798 1882
87 2125 1798 1865
88 2128 1750 1824
89 2133 1759 1826
90 2131 1757 1822
91 2146 1772 1823
92 2129 1874 1946
93 2131 2012 2083
94 2129 2146 2219
95 2136 2177 2237
96 2137 2076 2131
97 2126 1970 2041
98 2136 1987 2047
99 2127 1953 2027
100 2136 2003 2066
101 2132 1912 1979
102 2132 1904 1973
103 2136 1902 1967
104 2126 1847 1909
105 2130 1751 1807
106 2123 1727 1806
107 2134 1776 1844
108 2124 1734 1807
109 2115 1778 1857
110 2111 1862 1949
111 2139 1957 2008
112 2129 1970 2040
113 2124 2019 2116
114 2123 2004 2069
115 2144 1976 2031
116 2146 1986 2033
117 2142 1951 2003
118 2155 1928 1964
119 2150 1859 1907
120 2140 1893 1948
121 2139 1953 2007
122 2148 1938 1986
123 2144 1888 1936
124 2154 1896 1939
125 2147 1854 1907
126 2128 1810 1871
127 2118 1791 1869
128 2110 1800 1884
129 2114 1828 1914
130 2116 1794 1870
131 2119 1818 1895
132 2111 1877 1957
133 2116 1964 2043
134 2126 2036 2109
135 2139 2051 2107
136 2153 2066 2104
137 2148 2081 2125
138 2143 2092 2153
139 2132 2064 2126
140 2133 2007 2063
141 2130 1937 2004
142 2132 1917 1986
143 2142 1957 2018
144 2145 1904 1956
145 2131 1790 1853
146 2122 1763 1837
147 2138 1800 1867
148 2133 1821 1891
149 2140 1803 1853
150 2134 1748 1808
151 2141 1829 1889
152 2137 1871 1929
153 2135 1856 1924
154 2138 1900 1961
155 2145 1998 2057
156 2158 2190 2234
157 2150 2233 2275
158 2162 2205 2240
159 2167 2178 2208
160 2155 2048 2086
161 2142 1894 1942
162 2146 1845 1892
163 2144 1866 1920
164 2143 1891 1938
165 2158 1790 1825
166 2153 1702 1745
167 2152 1732 1773
168 2143 1770 1821
169 2152 1814 1861
170 2157 1767 1812
171 2152 1771 1819
172 2146 1759 1815
173 2154 1779 1822
174 2146 1805 1858
175 2142 1896 1951
176 2157 2020 2074
177 2159 2216 2261
178 2173 2282 2307
179 2161 2293 2339
180 2158 2191 2232
181 2153 2019 2065
182 2159 2030 2059
183 2177 2021 2043
184 2172 1933 1953
185 2168 1834 1862
186 2150 1795 1844
187 2154 1807 1847
188 2172 1809 1837
189 2191 1829 1834
190 2193 1873 1880
191 2190 1888 1889
192 2188 1847 1853
193 2183 1846 1868
194 2189 1948 1970
195 2182 2074 2094
196 2175 2119 2137
197 2169 2150 2174
198 2177 2164 2189
199 2176 2117 2139
200 2177 2101 2123
201 2171 2067 2094
202 2179 2014 2033
203 2181 1970 1982
204 2175 1921 1937
205 2167 1869 1900
206 2163 1822 1852
207 2186 1848 1860
208 2158 1923 1962
209 2180 2084 2113
210 2169 2151 2182
211 2173 2187 2206
212 2174 2082 2091
213 2189 2003 2009
214 2195 1959 1956
215 2191 1931 1939
216 2204 2001 1997
217 2194 2059 2065
218 2194 2106 2113
219 2185 2099 2115
220 2198 2106 2106
221 2189 2053 2055
222 2208 2041 2033
223 2212 2012 2005
224 2206 1976 1968
225 2200 1874 1867
226 2196 1842 1844
227 2203 1892 1887
228 2192 1834 1834
229 2209 1842 1830
230 2211 1867 1858
231 2212 1955 1947
232 2198 2125 2136
233 2195 2322 2327
234 2213 2313 2297
235 2214 2260 2242
236 2217 2213 2193
237 2208 2087 2079
238 2205 2030 2024
239 2200 2019 2019
240 2192 2033 2038
241 2201 2047 2044
242 2220 2056 2029
243 2216 2039 2018
244 2210 2053 2040
245 2195 2019 2023
246 2180 1985 1999
247 2195 1985 1990
248 2183 1939 1958
249 2179 1984 2002
250 2180 1970 1981
251 2201 1991 1984
252 2200 1987 1985
253 2179 1989 2012
254 2187 2014 2027
255 2184 2050 2066
256 2189 2098 2106
257 2194 2130 2132
258 2208 2139 2124
259 2191 2067 2074
260 2195 2099 2104
261 2176 2048 2062
262 2184 2086 2100
263 2178 2051 2071
264 2170 2018 2047
265 2166 1981 2008
266 2157 1924 1960
267 2162 1869 1901
268 2169 1812 1837
269 2200 1963 1965
270 2192 2039 2060
271 2179 2111 2134
272 2174 2110 2137
273 2172 2123 2151
274 2175 2109 2128
275 2182 2134 2151
276 2195 2203 2213
277 2180 2211 2230
278 2180 2237 2258
279 2174 2276 2300
280 2161 2200 2208
281 2174 2015 2035
282 2178 1966 1995
283 2174 1982 2005
284 2168 1940 1962
285 2163 1892 1928
286 2144 1862 1911
287 2149 1850 1888
288 2151 1822 1864
289 2173 1857 1880
290 2169 1858 1882
291 2159 1845 1875
292 2148 1769 1816
293 2131 1776 1845
294 2130 1847 1922
295 2135 1923 1989
296 2158 2065 2102
297 2158 2219 2264
298 2153 2425 2474
299 2143 2404 2457
300 2152 2395 2429
301 2144 2143 2192
302 2144 2019 2070
303 2134 1868 1923
304 2132 1746 1795
305 2121 1729 1796
306 2122 1729 1802
307 2130 1755 1825
308 2146 1777 1832
309 2148 1815 1864
310 2146 1813 1862
311 2156 1837 1871
312 2153 1900 1939
313 2137 1975 2031
314 2135 2059 2119
315 2148 2068 2111
316 2149 2075 2122
317 2155 2087 2134
318 2156 2098 2138
319 2137 2032 2097
320 2140 1990 2042
321 2128 1921 1991
322 2144 1978 2033
323 2146 1977 2027
324 2153 1874 1915
325 2140 1822 1878
326 2123 1790 1867
327 2121 1745 1818
328 2114 1686 1763
329 2129 1744 1810
330 2131 1790 1833
331 2128 1811 1874
332 2115 1792 1872
333 2112 1824 1907
334 2127 1879 1952
335 2132 1971 2036
336 2129 1970 2033
337 2113 1950 2040
338 2113 2038 2127
339 2118 2076 2153
340 2121 2102 2181
341 2119 2032 2105
342 2128 1968 2037
343 2140 1951 2009
344 2129 1922 1977
345 2134 1834 1892
346 2121 1785 1859
347 2112 1774 1854
348 2117 1744 1831
349 2121 1759 1834
350 2108 1775 1863
351 2111 1823 1912
352 2109 1878 1964
353 2113 1959 2037
354 2125 1989 2057
355 2125 2057 2134
356 2118 2050 2117
357 2120 2012 2087
358 2131 2028 2092
359 2114 1995 2073
360 2109 2031 2106
361 2112 1944 2024
362 2124 1954 2025
363 2137 1918 1976
364 2104 2002 2106
365 2070 2072 2192
366 2097 1967 2068
367 2107 1894 1975
368 2113 1821 1900
369 2118 1815 1897
370 2108 1719 1810
371 2112 1807 1899
372 2107 1883 1977
373 2104 1901 1989
374 2110 1923 2017
375 2126 1978 2048
376 2132 1981 2037
377 2121 1938 2006
378 2123 1909 1979
379 2121 1899 1974
380 2125 1903 1976
381 2104 1880 1972
382 2105 1908 2002
383 2109 2008 2098
384 2103 2007 2097
385 2100 1864 1948
386 2104 1775 1866
387 2115 1770 1850
388 2118 1788 1868
389 2123 1859 1937
390 2107 1904 1993
391 2092 1945 2042
392 2089 1887 1993
393 2084 1798 1900
394 2118 1782 1862
395 2125 1813 1888
396 2117 1886 1961
397 2116 1892 1975
398 2117 1952 2037
399 2106 2014 2116
400 2100 2098 2190
401 2102 2101 2191
402 2112 2031 2116
403 2111 1953 2030
404 2100 1870 1961
405 2097 1839 1934
406 2097 1804 1897
407 2103 1753 1853
408 2090 1722 1828
409 2094 1765 1857
410 2101 1785 1876
411 2104 1784 1875
412 2103 1764 1857
413 2100 1776 1875
414 2088 1822 1928
415 2097 1894 1991
416 2106 1925 2014
417 2095 1943 2045
418 2097 1984 2076
419 2094 1955 2052
420 2093 1899 1988
421 2096 1862 1962
422 2122 1908 1983
423 2127 1898 1962
424 2111 1850 1939
425 2101 1878 1978
426 2091 1929 2035
427 2096 2043 2144
428 2111 2048 2135
429 2109 2031 2121
430 2107 2012 2102
431 2093 1952 2040
432 2082 1840 1944
433 2101 1804 1890
434 2112 1768 1842
435 2115 1762 1844
436 2105 1765 1842
437 2094 1770 1870
438 2118 1836 1908
439 2095 1874 1961
440 2092 1940 2045
441 2091 1950 2051
442 2109 1970 2053
443 2100 1921 2011
444 2091 1862 1966
445 2079 1812 1928
446 2072 1787 1921
447 2077 1781 1900
448 2086 1762 1874
449 2099 1832 1930
450 2089 1891 2002
451 2088 1957 2061
452 2085 1914 2019
453 2087 1863 1973
454 2091 1831 1932
455 2091 1814 1920
456 2094 1842 1948
457 2090 1883 1987
458 2104 1900 1988
459 2090 1882 1979
460 2106 1931 2016
461 2098 1924 2024
462 2101 1949 2034
463 2100 1926 2020
464 2080 1853 1964
465 2081 1798 1911
466 2064 1799 1929
467 2061 1854 1986
468 2058 1816 1957
469 2060 1791 1929
470 2058 1786 1927
471 2060 1827 1961
472 2053 1880 2024
473 2073 1930 2053
474 2084 2062 2180
475 2078 2142 2261
476 2091 2055 2160
477 2085 2015 2135
478 2089 2035 2134
479 2085 1955 2058
480 2084 1916 2024
481 2070 1807 1932
482 2079 1791 1906
483 2086 1787 1889
484 2082 1794 1901
485 2075 1787 1907
486 2063 1807 1932
487 2056 1820 1957
488 2053 1794 1936
489 2067 1782 1912
490 2068 1791 1922
491 2072 1836 1963
492 2058 1776 1910
493 2062 1776 1911
494 2069 1826 1951
495 2073 1909 2033
496 2079 1994 2116
497 2085 2052 2168
498 2085 2020 2128
499 2077 1933 2049
500 2073 1919 2048
501 2061 1931 2062
502 2082 1947 2062
503 2085 1888 1993
504 2070 1789 1901
505 2060 1760 1890
506 2065 1754 1886
507 2070 1721 1845
508 2063 1666 1792
509 2062 1708 1830
510 2073 1740 1853
511 2079 1799 1908
512 2067 1809 1930
513 2068 1866 1992
514 2073 1917 2034
515 2076 1978 2098
516 2085 1966 2085
517 2081 1918 2036
518 2081 1918 2034
519 2072 1914 2035
520 2068 1980 2106
521 2067 2005 2139
522 2074 2068 2193
523 2079 2076 2190
524 2081 2037 2153
525 2068 1912 2035
526 2049 1831 1974
527 2060 1787 1923
528 2057 1685 1815
529 2067 1689 1822
530 2070 1681 1796
531 2092 1751 1857
532 2073 1769 1890
533 2052 1745 1887
534 2049 1779 1918
535 2063 1803 1941
536 2072 1876 2002
537 2060 1899 2044
538 2061 2004 2130
539 2057 2010 2148
540 2054 1988 2124
541 2050 1865 2006
542 2053 1850 1992
543 2067 1831 1957
544 2049 1813 1962
545 2053 1793 1937
546 2058 1771 1911
547 2064 1781 1912
548 2055 1765 1903
549 2057 1796 1931
550 2061 1778 1905
551 2065 1762 1887
552 2064 1747 1877
553 2057 1752 1886
554 2065 1836 1962
555 2056 1948 2087
556 2048 1969 2117
557 2047 2074 2221
558 2065 2138 2270
559 2060 2110 2253
560 2068 2179 2308
561 2075 2194 2318
562 2076 2077 2187
563 2086 1909 2010
564 2078 1700 1812
565 2073 1651 1771
566 2056 1645 1784
567 2057 1667 1806
568 2063 1651 1790
569 2050 1729 1880
570 2046 1815 1963
571 2061 1815 1950
572 2056 1828 1966
573 2053 1882 2031
574 2055 1923 2058
575 2066 1913 2043
576 2081 1965 2086
577 2064 1953 2073
578 2072 1898 2019
579 2060 1837 1969
580 2058 1852 1988
581 2056 1899 2041
582 2069 2017 2144
583 2084 2085 2199
584 2073 2051 2164
585 2060 1930 2063
586 2048 1952 2092
587 2054 1884 2027
588 2041 1781 1934
589 2047 1733 1874
590 2046 1660 1806
591 2056 1642 1787
592 2065 1679 1803
593 2087 1714 1822
594 2080 1786 1901
595 2078 1834 1950
596 2093 1878 1978
597 2085 1872 1981
598 2081 1920 2028
599 2074 1950 2069
600 2077 1996 2110
601 2065 1976 2097
602 2076 1964 2085
603 2066 1902 2031
604 2061 1842 1972
605 2063 1796 1923
606 2071 1756 1881
607 2065 1770 1898
608 2059 1791 1923
609 2060 1808 1937
610 2056 1781 1912
611 2059 1774 1905
612 2050 1742 1890
613 2047 1780 1929
614 2075 1787 1909
615 2070 1785 1914
616 2085 1841 1952
617 2072 1886 2017
618 2068 1915 2044
619 2043 1944 2093
620 2059 1959 2094
621 2063 1937 2067
622 2071 1932 2059
623 2074 1893 2007
624 2077 1905 2029
625 2072 1936 2060
626 2061 1928 2053
627 2071 1881 2001
628 2065 1759 1887
629 2077 1823 1944
630 2077 1786 1901
631 2086 1806 1912
632 2069 1873 2003
633 2065 1906 2029
634 2081 1882 1988
635 2084 1892 1998
636 2095 1980 2079
637 2097 2025 2134
638 2093 2138 2244
639 2084 2210 2317
640 2085 2099 2207
641 2086 1985 2091
642 2097 1956 2049
643 2094 1869 1966
644 2084 1782 1894
645 2075 1761 1878
646 2056 1714 1847
647 2075 1719 1835
648 2074 1754 1875
649 2073 1808 1927
650 2066 1778 1905
651 2082 1799 1909
652 2079 1800 1916
653 2062 1806 1934
654 2067 1852 1971
655 2070 1850 1971
656 2072 1884 2004
657 2070 1953 2076
658 2085 2126 2238
659 2097 2222 2327
660 2099 2278 2374
661 2091 2258 2356
662 2111 2118 2202
663 2124 1994 2057
664 2118 1861 1935
665 2110 1777 1857
666 2094 1736 1837
667 2105 1718 1815
668 2083 1728 1837
669 2076 1733 1853
670 2077 1737 1854
671 2091 1784 1883
672 2093 1814 1913
673 2094 1870 1975
674 2105 1962 2058
675 2107 1978 2057
676 2117 1971 2050
677 2103 1992 2079
678 2120 2036 2119
679 2099 2041 2137
680 2101 1985 2083
681 2082 1980 2095
682 2095 1967 2073
683 2101 1901 1985
684 2109 1880 1969
685 2103 1833 1914
686 2090 1799 1904
687 2095 1820 1922
688 2095 1804 1910
689 2101 1845 1937
690 2099 1852 1952
691 2095 1896 2002
692 2072 1882 1999
693 2090 1907 2013
694 2112 2003 2092
695 2108 2040 2123
696 2125 2064 2131
697 2125 2035 2102
698 2130 2017 2080
699 2118 1970 2051
700 2117 1960 2036
701 2107 1882 1973
702 2102 1856 1950
703 2080 1867 1970
704 2061 1847 1969
705 2053 1824 1952
706 2054 1771 1911
707 2061 1770 1902
708 2060 1754 1892
709 2075 1807 1927
710 2067 1798 1925
711 2059 1831 1959
712 2044 1782 1925
713 2035 1781 1944
714 2036 1843 1997
715 2051 1871 2018
716 2056 1907 2039
717 2054 1877 2020
718 2070 1905 2042
719 2057 1903 2040
720 2056 1918 2054
721 2058 1908 2040
722 2059 1913 2055
723 2062 1897 2025
724 2069 1855 1982
725 2061 1796 1930
726 2036 1765 1926
727 2039 1790 1946
728 2032 1782 1943
729 2040 1775 1928
730 2046 1775 1916
731 2057 1803 1940
732 2054 1834 1977
733 2046 1842 1983
734 2049 1799 1942
735 2072 1810 1932
736 2066 1849 1985
737 2044 1868 2021
738 2043 1922 2071
739 2046 1953 2108
740 2048 2003 2150
741 2046 1957 2099
742 2066 1929 2055
743 2068 1826 1943
744 2062 1729 1857
745 2059 1723 1860
746 2044 1745 1892
747 2054 1777 1916
748 2041 1727 1883
749 2044 1703 1858
750 2042 1713 1868
751 2045 1784 1936
752 2037 1809 1954
753 2040 1757 1907
754 2042 1808 1954
755 2045 1883 2027
756 2059 1938 2069
757 2053 1924 2065
758 2050 1969 2108
759 2046 1985 2128
760 2047 1967 2111
761 2066 1894 2022
762 2078 1819 1931
763 2076 1765 1884
764 2044 1724 1870
765 2027 1741 1910
766 2023 1737 1906
767 2033 1741 1908
768 2037 1755 1914
769 2056 1788 1925
770 2063 1766 1891
771 2067 1811 1927
772 2074 1826 1945
773 2068 1866 1994
774 2083 1909 2019
775 2082 1861 1977
776 2105 1879 1964
777 2098 1901 1992
778 2109 1991 2076
779 2115 2063 2136
780 2130 2073 2135
781 2124 2056 2114
782 2144 2024 2073
783 2152 1966 2011
784 2140 1897 1955
785 2141 1883 1930
786 2140 1904 1966
787 2126 1904 1974
788 2110 1968 2056
789 2124 2053 2119
790 2132 2089 2153
791 2136 2164 2225
792 2131 2191 2262
793 2141 2235 2296
794 2140 2264 2320
795 2145 2330 2379
796 2179 2368 2378
797 2179 2384 2401
798 2191 2434 2439
799 2176 2345 2368
800 2170 2309 2334
801 2150 2184 2225
802 2159 2153 2203
803 2163 2256 2289
804 2160 2237 2269
805 2150 2182 2225
806 2137 2056 2114
807 2140 1993 2038
808 2140 1942 1996
809 2143 1912 1960
810 2138 1868 1927
811 2137 1899 1951
812 2116 1857 1932
813 2085 1833 1942
814 2079 1837 1957
815 2080 1897 2014
816 2086 1942 2049
817 2068 1938 2065
818 2064 1974 2106
819 2048 1883 2026
820 2034 1907 2076
821 2013 1933 2112
822 2025 1912 2081
823 2023 1894 2067
824 2021 1894 2070
825 2025 1846 2017
826 2024 1787 1946
827 2040 1779 1930
828 2028 1744 1911
829 2031 1690 1844
830 2039 1658 1808
831 2041 1722 1865
832 2045 1735 1875
833 2040 1735 1885
834 2038 1766 1915
835 2038 1820 1969
836 2062 1869 1999
837 2040 1880 2032
838 2041 2019 2184
839 2041 2121 2277
840 2039 2072 2222
841 2048 2020 2165
842 2058 2012 2148
843 2068 1950 2072
844 2066 1820 1949
845 2051 1731 1875
846 2037 1734 1891
847 2039 1734 1889
848 2036 1682 1832
849 2058 1680 1814
850 2042 1684 1834
851 2044 1759 1908
852 2038 1791 1945
853 2039 1940 2099
854 2045 2007 2154
855 2046 1943 2089
856 2059 1960 2093
857 2052 1985 2135
858 2050 2039 2185
859 2034 1937 2088
860 2041 1904 2056
861 2031 1858 2019
862 2042 1882 2034
863 2054 1839 1987
864 2047 1759 1895
865 2046 1700 1850
866 2039 1714 1878
867 2041 1722 1878
868 2024 1687 1860
869 2026 1678 1841
870 2026 1663 1842
871 2041 1840 2006
872 2052 1893 2030
873 2051 1965 2116
874 2056 2029 2168
875 2056 1998 2129
876 2066 1975 2106
877 2043 1937 2086
878 2052 1938 2081
879 2027 1879 2044
880 2027 1884 2054
881 2033 1842 1998
882 2050 1841 1984
883 2046 1860 2002
884 2048 1930 2080
885 2040 1924 2073
886 2035 1855 2016
887 2037 1788 1940
888 2031 1728 1890
889 2043 1766 1917
890 2039 1767 1921
891 2044 1735 1881
892 2035 1705 1862
893 2028 1779 1949
894 2036 1910 2078
895 2044 2021 2173
896 2055 2034 2167
897 2052 1919 2060
898 2064 1923 2059
899 2055 1897 2041
900 2052 1943 2091
901 2043 1988 2132
902 2048 1916 2066
903 2050 1901 2040
904 2049 1879 2020
905 2040 1826 1964
906 2047 1732 1873
907 2056 1703 1840
908 2042 1704 1854
909 2049 1796 1944
910 2045 1882 2030
911 2041 1941 2091
912 2047 1960 2105
913 2047 1922 2070
914 2066 1946 2079
915 2067 1952 2082
916 2072 1938 2056
917 2059 1948 2084
918 2063 1970 2108
919 2048 1952 2098
920 2043 1949 2103
921 2051 1908 2055
922 2040 1879 2034
923 2053 1820 1961
924 2044 1763 1907
925 2047 1744 1887
926 2053 1752 1884
927 2061 1775 1907
928 2052 1748 1891
929 2044 1756 1909
930 2054 1790 1924
931 2055 1844 1975
932 2057 1819 1946
933 2060 1801 1938
934 2053 1886 2033
935 2053 1945 2091
936 2062 2016 2147
937 2058 2047 2190
938 2063 2102 2238
939 2068 2048 2181
940 2078 1983 2102
941 2060 1928 2066
942 2066 1948 2078
943 2068 1946 2070
944 2073 1962 2088
945 2070 1945 2063
946 2063 1899 2023
947 2071 1853 1967
948 2061 1802 1930
949 2077 1820 1938
950 2071 1839 1960
951 2073 1863 1983
952 2068 1825 1942
953 2059 1870 2008
954 2056 1965 2106
955 2064 2060 2195
956 2078 2083 2197
957 2084 2012 2122
958 2084 1983 2096
959 2070 2002 2126
960 2053 2150 2294
961 2058 2106 2244
962 2073 2020 2144
963 2080 1929 2045
964 2065 1803 1926
965 2065 1697 1832
966 2049 1651 1788
967 2054 1711 1847
968 2051 1806 1949
969 2086 1941 2050
970 2090 1997 2109
971 2082 2024 2136
972 2083 2030 2143
973 2068 2005 2131
974 2068 2011 2139
975 2088 1979 2088
976 2105 1938 2034
977 2091 1921 2023
978 2108 1972 2062
979 2091 2061 2164
980 2093 2057 2155
981 2086 2089 2197
982 2091 2109 2218
983 2095 1982 2081
984 2092 1861 1968
985 2085 1938 2048
986 2064 1900 2021
987 2070 1823 1950
988 2071 1855 1981
989 2084 1855 1960
990 2085 1797 1909
991 2102 1775 1868
992 2098 1813 1919
993 2087 1973 2082
994 2095 2073 2184
995 2089 2168 2274
996 2096 2179 2281
997 2088 2132 2238
998 2099 2126 2227
999 2091 2163 2272
1000 2093 2102 2202
1001 2098 2008 2102
1002 2094 1994 2088
1003 2087 1875 1978
1004 2076 1872 1981
1005 2073 1777 1894
1006 2075 1710 1842
1007 2090 1894 2004
1008 2083 2006 2123
1009 2092 1989 2089
1010 2093 1921 2028
1011 2093 1927 2031
1012 2094 1922 2022
1013 2090 1923 2025
1014 2103 1907 2005
1015 2095 2036 2135
1016 2116 2104 2188
1017 2099 2078 2176
1018 2101 2112 2210
1019 2090 2132 2244
1020 2086 2244 2353
1021 2092 2238 2339
1022 2090 2169 2265
1023 2088 2027 2123
1024 2103 1904 1989
1025 2107 1805 1887
1026 2083 1758 1866
1027 2090 1798 1905
1028 2089 1772 1877
1029 2082 1837 1956
1030 2074 1895 2011
1031 2075 1950 2079
1032 2069 2004 2132
1033 2078 1916 2028
1034 2084 1840 1944
1035 2090 1839 1946
1036 2110 1983 2077
1037 2104 2152 2253
1038 2101 2153 2253
1039 2095 2081 2180
1040 2087 2086 2190
1041 2067 2041 2161
1042 2083 1980 2086
1043 2084 1918 2030
1044 2074 1880 2003
1045 2076 1901 2024
1046 2057 1867 1999
1047 2063 1853 1980
1048 2056 1825 1962
1049 2076 1817 1923
1050 2085 1796 1913
1051 2075 1859 1978
1052 2078 1864 1976
1053 2072 1842 1957
1054 2066 1890 2021
1055 2046 1981 2136
1056 2050 2069 2208
1057 2045 2072 2212
1058 2064 2066 2195
1059 2067 2002 2137
1060 2073 1981 2101
1061 2080 1918 2029
1062 2082 1912 2029
1063 2080 1979 2110
1064 2058 1975 2108
1065 2066 1934 2063
1066 2072 1843 1967
1067 2074 1804 1926
1068 2066 1797 1929
1069 2070 1879 1998
1070 2075 1806 1932
1071 2067 1768 1894
1072 2052 1844 1985
1073 2037 1886 2043
1074 2038 1976 2127
1075 2041 1973 2124
1076 2055 1962 2103
1077 2054 1912 2055
1078 2054 1938 2075
1079 2050 1914 2058
1080 2050 1983 2132
1081 2041 2006 2158
1082 2041 2027 2179
1083 2058 1938 2074
1084 2053 1828 1957
1085 2056 1804 1941
1086 2053 1781 1922
1087 2059 1800 1939
1088 2028 1821 1978
1089 2040 1826 1986
1090 2043 1843 1996
1091 2044 1782 1930
1092 2037 1676 1830
1093 2028 1667 1832
1094 2035 1751 1916
1095 2047 1800 1940
1096 2062 1893 2025
1097 2054 1946 2092
1098 2052 1979 2124
1099 2039 1931 2080
1100 2046 1914 2057
1101 2047 1950 2089
1102 2051 1922 2061
1103 2058 1936 2074
1104 2041 1960 2112
1105 2034 1834 1984
1106 2039 1775 1923
1107 2054 1714 1852
1108 2042 1620 1774
1109 2046 1643 1791
1110 2050 1624 1771
1111 2052 1693 1846
1112 2043 1778 1932
1113 2032 1866 2021
1114 2040 1924 2076
1115 2039 1937 2097
1116 2059 2023 2166
1117 2078 2021 2143
1118 2087 1940 2043
1119 2076 1776 1893
1120 2076 1793 1909
1121 2071 1928 2058
1122 2069 2027 2164
1123 2063 2018 2148
1124 2069 1947 2070
1125 2068 1759 1883
1126 2053 1701 1834
1127 2063 1828 1956
1128 2048 1787 1933
1129 2057 1769 1901
1130 2062 1823 1960
1131 2056 1823 1964
1132 2057 1809 1947
1133 2056 1808 1955
1134 2050 1835 1984
1135 2041 1917 2076
1136 2041 1909 2056
1137 2044 1875 2024
1138 2048 1862 2004
1139 2058 1888 2034
1140 2066 1920 2045
1141 2068 1863 1991
1142 2069 2001 2132
1143 2072 2070 2200
1144 2053 1925 2060
1145 2043 1806 1951
1146 2048 1760 1900
1147 2057 1727 1864
1148 2034 1669 1833
1149 2042 1714 1862
1150 2060 1715 1848
1151 2065 1707 1832
1152 2057 1720 1852
1153 2061 1743 1878
1154 2069 1770 1894
1155 2082 1808 1926
1156 2094 1877 1978
1157 2080 1862 1978
1158 2082 1905 2022
1159 2088 1947 2062
1160 2088 2072 2179
1161 2073 2077 2201
1162 2080 1981 2096
1163 2088 1853 1950
1164 2075 1725 1847
1165 2068 1741 1872
1166 2057 1790 1919
1167 2065 1853 1981
1168 2067 1861 1986
1169 2082 1828 1936
1170 2085 1759 1862
1171 2076 1695 1805
1172 2077 1666 1781
1173 2063 1686 1816
1174 2068 1756 1886
1175 2078 1878 2005
1176 2089 1949 2058
1177 2085 1900 2014
1178 2087 1920 2033
1179 2068 1905 2029
1180 2052 1937 2081
1181 2055 1935 2080
1182 2061 1931 2067
1183 2076 1896 2007
1184 2084 1848 1957
1185 2092 1821 1918
1186 2076 1722 1841
1187 2075 1729 1849
1188 2063 1773 1910
1189 2075 1839 1963
1190 2065 1854 1977
1191 2077 1844 1966
1192 2074 1851 1975
1193 2079 1923 2043
1194 2086 1968 2085
1195 2087 2020 2129
1196 2102 2107 2195
1197 2099 2055 2153
1198 2102 2090 2191
1199 2085 1992 2105
1200 2081 1900 2013
1201 2076 1870 1989
1202 2091 1991 2097
1203 2097 2047 2149
1204 2084 1931 2034
1205 2076 1758 1875
1206 2060 1735 1870
1207 2066 1738 1868
1208 2065 1705 1837
1209 2077 1727 1845
1210 2076 1673 1787
1211 2087 1682 1797
1212 2089 1777 1890
1213 2087 1934 2043
1214 2088 1947 2057
1215 2079 1995 2118
1216 2100 2115 2208
1217 2082 2203 2324
1218 2092 2456 2561
1219 2068 2422 2547
1220 2082 2304 2415
1221 2080 2217 2332
1222 2095 2083 2165
1223 2125 1812 1868
1224 2109 1598 1674
1225 2092 1588 1684
1226 2083 1666 1770
1227 2086 1674 1777
1228 2102 1688 1780
1229 2107 1691 1777
1230 2096 1698 1803
1231 2090 1750 1856
1232 2080 1707 1829
1233 2079 1814 1938
1234 2082 1976 2099
1235 2085 2011 2124
1236 2096 2015 2113
1237 2119 1974 2047
1238 2114 1969 2043
1239 2104 1887 1979
1240 2102 1887 1986
1241 2099 1964 2060
1242 2119 2025 2095
1243 2117 1987 2057
1244 2105 1914 2009
1245 2100 1940 2036
1246 2088 1854 1956
1247 2098 1855 1953
1248 2087 1796 1892
1249 2097 1787 1880
1250 2086 1757 1861
1251 2098 1848 1945
1252 2095 1903 2005
1253 2089 1933 2036
1254 2098 1888 1984
1255 2085 1854 1958
1256 2104 1883 1975
1257 2100 1917 2016
1258 2113 2048 2131
1259 2114 2064 2143
1260 2116 2145 2219
1261 2108 2117 2201
1262 2104 2023 2102
1263 2116 1999 2076
1264 2105 2060 2147
1265 2103 2058 2141
1266 2103 1938 2028
1267 2112 1864 1940
1268 2096 1752 1851
1269 2110 1732 1812
1270 2096 1680 1771
1271 2096 1710 1808
1272 2097 1782 1876
1273 2084 1845 1957
1274 2094 1925 2025
1275 2099 1947 2050
1276 2119 1991 2073
1277 2107 1992 2078
1278 2112 1952 2033
1279 2115 1904 1986
1280 2103 1916 2009
1281 2096 1914 2014
1282 2105 1976 2069
1283 2120 1973 2045
1284 2113 1861 1937
1285 2111 1875 1952
1286 2104 1898 1988
1287 2111 1912 1986
1288 2096 1816 1916
1289 2096 1779 1867
1290 2128 1789 1858
1291 2128 1837 1903
1292 2117 1840 1918
1293 2109 1884 1976
1294 2104 1962 2052
1295 2101 1999 2089
1296 2117 2012 2087
1297 2112 1962 2053
1298 2113 1946 2024
1299 2116 1869 1953
1300 2107 1879 1966
1301 2105 1894 1990
1302 2110 1975 2059
1303 2112 1980 2062
1304 2104 2002 2086
1305 2100 1907 2000
1306 2094 1834 1936
1307 2098 1824 1927
1308 2096 1806 1906
1309 2096 1821 1917
1310 2098 1859 1954
1311 2097 1910 2001
1312 2095 1891 1991
1313 2106 1899 1992
1314 2109 1873 1957
1315 2098 1965 2064
1316 2126 2242 2313
1317 2123 2271 2337
1318 2120 2161 2230
1319 2121 2012 2083
1320 2133 1988 2048
1321 2123 1956 2028
1322 2130 1903 1959
1323 2119 1830 1901
1324 2101 1771 1856
1325 2111 1763 1835
1326 2098 1715 1814
1327 2098 1690 1787
1328 2105 1680 1770
1329 2118 1703 1781
1330 2120 1664 1739
1331 2120 1665 1733
1332 2123 1689 1764
1333 2116 1878 1974
1334 2122 2028 2105
1335 2115 2159 2241
1336 2129 2160 2227
1337 2122 2082 2154
1338 2117 2027 2104
1339 2102 1942 2032
1340 2107 1942 2027
1341 2108 1974 2057
1342 2126 2007 2085
1343 2129 1976 2035
1344 2122 1937 2006
1345 2124 1847 1917
1346 2108 1754 1840
1347 2109 1748 1828
1348 2106 1752 1836
1349 2120 1781 1850
1350 2107 1793 1871
1351 2123 1836 1910
1352 2107 1829 1911
1353 2098 1804 1909
1354 2117 1879 1954
1355 2124 1919 1990
1356 2147 1935 1980
1357 2146 1878 1932
1358 2142 1888 1944
1359 2129 1992 2068
1360 2120 2192 2267
1361 2118 2152 2219
1362 2130 2138 2202
1363 2140 2138 2186
1364 2144 1974 2015
1365 2142 1941 1981
1366 2116 1931 2011
1367 2132 1914 1978
1368 2126 1848 1911
1369 2127 1822 1883
1370 2150 1761 1795
1371 2133 1754 1809
1372 2120 1753 1832
1373 2104 1793 1884
1374 2115 1861 1940
1375 2128 1865 1928
1376 2146 1910 1962
1377 2137 1964 2031
1378 2132 1993 2055
1379 2135 1951 2015
1380 2127 1952 2029
1381 2124 1941 2008
1382 2127 1982 2056
1383 2124 1963 2034
1384 2128 1903 1971
1385 2128 1872 1940
1386 2118 1848 1922
1387 2133 1871 1938
1388 2131 1807 1870
1389 2133 1774 1838
1390 2134 1812 1875
1391 2133 1890 1954
1392 2138 1882 1935
1393 2131 1914 1985
1394 2139 2040 2105
1395 2136 2019 2074
1396 2138 2019 2069
1397 2136 2012 2077
1398 2142 2030 2081
1399 2134 2011 2072
1400 2154 1988 2025
1401 2161 1956 1990
1402 2149 1972 2019
1403 2158 1958 1991
1404 2153 1871 1911
1405 2164 1828 1862
1406 2159 1852 1900
1407 2154 1884 1931
1408 2150 1824 1872
1409 2159 1799 1835
1410 2163 1829 1860
1411 2171 1856 1888
1412 2176 1878 1893
1413 2159 1880 1916
1414 2156 1933 1968
1415 2167 1955 1976
1416 2172 1966 1988
1417 2167 1944 1971
1418 2162 2035 2068
1419 2155 2128 2172
1420 2162 2176 2211
1421 2150 2162 2204
1422 2151 2145 2188
1423 2167 2118 2142
1424 2159 2074 2097
1425 2164 2043 2073
1426 2147 1944 1981
1427 2155 1858 1891
1428 2159 1868 1906
1429 2170 1902 1928
1430 2175 1856 1875
1431 2178 1803 1823
1432 2176 1786 1804
1433 2175 1766 1793
1434 2174 1862 1890
1435 2183 1991 2008
1436 2189 2058 2060
1437 2187 2046 2051
1438 2194 2033 2034
1439 2184 2025 2031
1440 2189 2081 2093
1441 2178 2141 2159
1442 2190 2124 2127
1443 2197 2006 2008
1444 2188 1986 1991
1445 2189 1939 1944
1446 2171 1893 1915
1447 2178 1884 1899
1448 2167 1898 1920
1449 2176 2020 2044
1450 2178 2024 2043
1451 2184 1991 2008
1452 2172 1887 1911
1453 2176 1897 1923
1454 2185 2012 2026
1455 2198 2018 2015
1456 2203 1954 1935
1457 2189 1860 1867
1458 2185 1890 1903
1459 2180 1909 1924
1460 2176 1977 1998
1461 2171 1986 2005
1462 2175 1997 2010
1463 2180 2007 2013
1464 2178 1936 1946
1465 2171 1860 1872
1466 2173 1789 1820
1467 2182 1839 1857
1468 2151 1809 1852
1469 2162 1916 1945
1470 2183 1986 1993
1471 2188 1997 2002
1472 2174 1989 2011
1473 2155 1903 1935
1474 2166 1845 1868
1475 2158 1841 1883
1476 2160 1882 1922
1477 2152 1890 1934
1478 2162 1993 2031
1479 2150 1967 2003
1480 2157 1912 1947
1481 2151 1898 1941
1482 2163 1924 1952
1483 2174 1954 1965
1484 2166 1965 1989
1485 2159 1927 1966
1486 2154 1892 1936
1487 2157 1915 1949
1488 2172 1876 1908
1489 2151 1889 1931
1490 2130 1938 2003
1491 2137 1940 1998
1492 2119 1844 1914
1493 2112 1794 1873
1494 2139 1829 1885
1495 2151 1870 1917
1496 2152 1923 1967
1497 2136 1910 1967
1498 2131 1958 2019
1499 2138 1964 2018
1500 2146 1985 2030
1501 2141 1962 2016
1502 2128 1947 2006
1503 2139 1934 1980
1504 2141 1842 1887
1505 2154 1758 1806
1506 2138 1731 1788
1507 2150 1758 1797
1508 2143 1696 1751
1509 2141 1716 1769
1510 2149 1828 1875
1511 2159 1844 1886
1512 2144 1886 1936
1513 2142 1883 1946
1514 2141 1945 1992
1515 2138 2014 2068
1516 2151 2134 2181
1517 2155 2124 2160
1518 2155 2077 2112
1519 2142 1987 2039
1520 2140 1944 1993
1521 2131 1999 2062
1522 2135 1983 2038
1523 2134 1977 2033
1524 2132 1916 1976
1525 2123 1860 1931
1526 2120 1814 1890
1527 2130 1754 1812
1528 2125 1668 1733
1529 2126 1679 1740
1530 2125 1709 1778
1531 2121 1760 1831
1532 2132 1762 1825
1533 2127 1772 1837
1534 2154 1830 1866
1535 2181 1909 1931
1536 2189 2011 2022
1537 2186 2069 2074
1538 2184 2105 2118
1539 2190 2016 2022
1540 2205 1965 1958
1541 2200 1964 1956
1542 2217 1977 1954
1543 2204 1955 1946
1544 2208 1912 1899
1545 2228 1876 1832
1546 2220 1874 1848
1547 2227 1953 1920
1548 2240 1983 1947
1549 2243 2062 2017
1550 2250 2106 2054
1551 2251 2182 2128
1552 2249 2205 2152
1553 2252 2229 2166
1554 2256 2230 2165
1555 2259 2231 2177
1556 2248 2339 2288
1557 2237 2374 2335
1558 2254 2414 2358
1559 2260 2440 2376
1560 2269 2431 2356
1561 2281 2359 2273
1562 2285 2397 2305
1563 2274 2371 2296
1564 2252 2256 2197
1565 2260 2156 2086
1566 2253 2133 2073
1567 2258 2153 2094
1568 2253 2093 2030
1569 2248 2104 2053
1570 2248 2086 2038
1571 2258 2097 2030
1572 2244 2053 2002
1573 2230 2012 1979
1574 2231 2090 2058
1575 2220 2157 2138
1576 2213 2175 2165
1577 2211 2080 2065
1578 2191 2085 2095
1579 2177 2137 2160
1580 2145 2152 2202
1581 2111 2049 2140
1582 2110 2001 2092
1583 2108 1861 1937
1584 2102 1735 1824
1585 2102 1760 1847
1586 2094 1742 1841
1587 2100 1831 1922
1588 2098 1771 1858
1589 2118 1744 1816
1590 2129 1735 1802
1591 2128 1763 1832
1592 2111 1751 1834
1593 2105 1774 1855
1594 2129 1798 1863
1595 2145 1807 1860
1596 2155 1926 1968
1597 2141 2017 2070
1598 2134 2096 2154
1599 2129 2084 2146
1600 2118 2069 2137
1601 2128 2006 2074
1602 2140 1993 2048
1603 2132 1971 2028
1604 2119 1921 1989
1605 2114 1826 1904
1606 2113 1755 1837
1607 2130 1699 1763
1608 2126 1637 1710
1609 2126 1669 1735
1610 2131 1706 1769
1611 2129 1743 1807
1612 2131 1807 1876
1613 2114 1856 1941
1614 2113 1929 2001
1615 2131 1924 1983
1616 2132 1960 2014
1617 2135 1962 2009
1618 2129 1966 2036
1619 2110 1986 2065
1620 2122 2009 2078
1621 2122 1976 2043
1622 2118 1924 1994
1623 2121 1893 1968
1624 2107 1854 1946
1625 2107 1777 1868
1626 2104 1780 1869
1627 2112 1830 1915
1628 2104 1823 1914
1629 2110 1815 1903
1630 2103 1830 1922
1631 2107 1790 1883
1632 2110 1744 1824
1633 2112 1755 1844
1634 2110 1805 1888
1635 2113 1835 1912
1636 2144 1881 1935
1637 2139 1904 1965
1638 2145 1984 2030
1639 2140 1956 2003
1640 2138 1952 2008
1641 2137 1917 1971
1642 2137 1885 1942
1643 2132 1883 1942
1644 2132 1908 1975
1645 2120 1924 1995
1646 2114 1835 1907
1647 2124 1793 1862
1648 2109 1803 1888
1649 2121 1851 1931
1650 2109 1883 1971
1651 2113 1921 1999
1652 2114 1913 1992
1653 2113 1972 2057
1654 2114 2016 2097
1655 2103 1966 2061
1656 2099 1949 2043
1657 2111 1953 2031
1658 2130 1942 2005
1659 2118 1868 1943
1660 2105 1833 1918
1661 2107 1829 1911
1662 2122 1839 1912
1663 2122 1850 1921
1664 2122 1792 1860
1665 2113 1741 1813
1666 2104 1763 1860
1667 2115 1782 1860
1668 2105 1782 1871
1669 2114 1794 1870
1670 2110 1754 1839
1671 2099 1759 1858
1672 2098 1788 1884
1673 2089 1781 1892
1674 2094 1826 1926
1675 2111 1913 2003
1676 2131 2041 2110
1677 2137 1989 2045
1678 2147 2012 2061
1679 2136 1990 2050
1680 2116 2022 2104
1681 2122 2092 2169
1682 2129 2096 2159
1683 2140 2014 2074
1684 2124 1922 1989
1685 2122 1850 1920
1686 2100 1737 1824
1687 2114 1677 1752
1688 2103 1729 1818
1689 2112 1746 1826
1690 2107 1743 1824
1691 2106 1769 1853
1692 2099 1772 1863
1693 2090 1778 1876
1694 2097 1815 1913
1695 2103 1917 2008
1696 2130 1987 2062
1697 2114 1990 2073
1698 2118 2002 2080
1699 2115 1993 2071
1700 2114 1987 2069
1701 2122 1949 2026
1702 2134 1949 2013
1703 2140 1921 1970
1704 2135 1870 1926
1705 2134 1819 1879
1706 2120 1784 1855
1707 2128 1796 1859
1708 2134 1764 1830
1709 2136 1788 1840
1710 2137 1782 1838
1711 2139 1819 1874
1712 2124 1806 1871
1713 2121 1866 1945
1714 2130 1985 2051
1715 2121 2017 2088
1716 2136 2010 2065
1717 2132 2050 2103
1718 2161 2188 2221
1719 2146 2214 2264
1720 2129 2270 2331
1721 2127 2129 2191
1722 2138 2014 2065
1723 2155 1862 1898
1724 2145 1711 1767
1725 2138 1689 1747
1726 2135 1753 1816
1727 2142 1865 1917
1728 2130 1910 1971
1729 2136 1885 1941
1730 2148 1886 1932
1731 2150 1879 1921
1732 2135 1824 1878
1733 2137 1790 1851
1734 2144 1824 1871
1735 2145 1906 1956
1736 2157 1959 1993
1737 2166 1975 1996
1738 2174 1968 1990
1739 2166 2021 2040
1740 2176 2112 2129
1741 2182 2268 2279
1742 2184 2344 2355
1743 2176 2324 2337
1744 2180 2217 2232
1745 2182 2117 2130
1746 2163 1976 2009
1747 2174 1832 1848
1748 2150 1603 1646
1749 2135 1568 1621
1750 2148 1674 1735
1751 2137 1829 1896
1752 2134 1915 1975
1753 2136 1927 1978
1754 2158 1934 1977
1755 2145 1973 2025
1756 2160 2050 2085
1757 2146 2056 2101
1758 2169 2063 2087
1759 2164 2030 2061
1760 2159 2051 2082
1761 2155 2033 2069
1762 2156 2059 2095
1763 2167 2034 2056
1764 2167 1995 2022
1765 2184 1981 1990
1766 2161 1926 1961
1767 2164 1929 1958
1768 2166 1888 1914
1769 2164 1852 1886
1770 2158 1858 1900
1771 2158 1905 1936
1772 2162 1904 1942
1773 2144 1919 1978
1774 2160 1982 2020
1775 2174 1989 2016
1776 2190 2081 2088
1777 2198 2098 2088
1778 2201 2156 2147
1779 2188 2147 2156
1780 2181 2128 2138
1781 2181 2039 2056
1782 2177 2043 2060
1783 2177 2076 2096
1784 2165 2024 2046
1785 2179 1967 1979
1786 2166 1956 1986
1787 2173 1982 2002
1788 2165 1947 1975
1789 2174 1952 1977
1790 2182 1983 1993
1791 2169 1989 2009
1792 2170 1963 1992
1793 2153 1979 2019
1794 2164 2005 2035
1795 2167 2065 2090
1796 2185 2089 2100
1797 2183 2056 2066
1798 2188 2020 2032
1799 2173 1962 1987
1800 2185 2039 2049
1801 2197 2053 2050
1802 2191 2037 2038
1803 2191 2032 2031
1804 2190 1984 1987
1805 2177 1941 1952
1806 2156 1911 1955
1807 2154 1935 1974
1808 2158 1943 1982
1809 2170 1981 2017
1810 2169 2010 2034
1811 2158 1992 2021
1812 2143 1936 1983
1813 2124 1852 1922
1814 2133 1877 1933
1815 2145 1954 2005
1816 2160 2032 2063
1817 2144 2011 2064
1818 2139 2087 2143
1819 2140 2171 2230
1820 2146 2168 2214
1821 2148 1990 2032
1822 2145 1889 1932
1823 2154 1832 1871
1824 2159 1810 1844
1825 2158 1945 1986
1826 2133 1896 1953
1827 2147 1839 1886
1828 2150 1863 1911
1829 2155 1981 2020
1830 2161 2051 2088
1831 2158 2020 2052
1832 2159 1907 1939
1833 2150 1869 1918
1834 2151 1883 1930
1835 2141 1885 1937
1836 2140 1945 1995
1837 2134 1893 1949
1838 2143 1937 1987
1839 2124 1940 2005
1840 2130 1905 1969
1841 2128 1878 1941
1842 2132 1929 1987
1843 2151 2015 2053
1844 2138 1953 2006
1845 2126 1898 1969
1846 2111 1880 1967
1847 2116 1874 1950
1848 2106 1824 1915
1849 2106 1837 1933
1850 2125 1859 1929
1851 2159 1866 1905
1852 2140 1879 1935
1853 2127 1869 1934
1854 2122 1793 1864
1855 2122 1768 1832
1856 2146 1873 1923
1857 2141 1953 2014
1858 2130 1999 2064
1859 2134 1980 2044
1860 2141 2001 2053
1861 2132 1978 2035
1862 2123 2021 2091
1863 2133 1980 2037
1864 2106 1886 1966
1865 2121 1778 1846
1866 2107 1666 1743
1867 2109 1616 1692
1868 2104 1620 1714
1869 2106 1672 1768
1870 2103 1713 1802
1871 2120 1769 1856
1872 2121 1783 1857
1873 2113 1769 1844
1874 2126 1806 1876
1875 2125 1844 1907
1876 2136 1898 1959
1877 2131 1929 1988
1878 2143 1925 1981
1879 2136 1916 1985
1880 2129 2004 2073
1881 2132 2094 2148
1882 2137 2078 2132
1883 2133 2029 2077
1884 2130 1912 1977
1885 2138 1819 1872
1886 2117 1724 1797
1887 2122 1679 1749
1888 2110 1603 1683
1889 2105 1626 1712
1890 2105 1701 1799
1891 2091 1794 1898
1892 2098 1819 1914
1893 2093 1820 1916
1894 2103 1854 1948
1895 2109 1860 1944
1896 2124 1857 1931
1897 2116 1875 1956
1898 2124 1918 1993
1899 2132 1924 1990
1900 2133 1899 1965
1901 2139 1849 1901
1902 2141 1805 1866
1903 2129 1897 1965
1904 2115 1923 1997
1905 2114 1902 1977
1906 2117 1944 2023
1907 2135 2013 2081
1908 2115 2019 2093
1909 2119 1843 1908
1910 2101 1707 1799
1911 2099 1788 1879
1912 2106 1784 1871
1913 2094 1848 1942
1914 2107 1933 2018
1915 2106 1940 2017
1916 2121 1881 1954
1917 2131 1821 1892
1918 2121 1841 1909
1919 2124 1788 1858
1920 2133 1864 1937
1921 2123 1943 2012
1922 2125 1912 1983
1923 2129 1953 2022
1924 2110 1935 2020
1925 2128 1791 1850
1926 2103 1638 1728
1927 2102 1690 1778
1928 2107 1765 1860
1929 2124 1878 1948
1930 2132 1946 2012
1931 2138 1886 1942
1932 2123 1795 1859
1933 2120 1755 1834
1934 2122 1909 1986
1935 2124 1958 2027
1936 2141 1970 2023
1937 2133 1911 1972
1938 2127 1904 1964
1939 2120 1869 1938
1940 2120 1851 1932
1941 2125 1785 1856
1942 2122 1760 1827
1943 2136 1822 1884
1944 2132 1892 1953
1945 2124 1912 1986
1946 2110 1873 1958
1947 2109 1801 1884
1948 2108 1708 1794
1949 2115 1716 1799
1950 2105 1729 1812
1951 2126 1728 1797
1952 2141 1772 1833
1953 2138 1778 1844
1954 2146 1858 1909
1955 2135 1902 1960
1956 2141 1917 1970
1957 2131 1979 2041
1958 2126 2097 2161
1959 2135 2045 2107
1960 2130 1962 2024
1961 2119 1874 1946
1962 2123 1880 1955
1963 2130 2018 2085
1964 2119 2082 2156
1965 2120 2030 2104
1966 2118 1878 1951
1967 2129 1758 1817
1968 2121 1667 1740
1969 2116 1754 1834
1970 2129 1851 1922
1971 2124 1862 1943
1972 2133 1826 1894
1973 2107 1808 1890
1974 2123 1846 1917
1975 2127 1808 1879
1976 2130 1870 1939
1977 2143 1882 1940
1978 2147 1910 1964
1979 2134 1917 1983
1980 2142 1939 1999
1981 2133 1905 1966
1982 2132 1858 1917
1983 2138 1841 1892
1984 2144 1846 1903
1985 2135 1832 1890
1986 2101 1754 1839
1987 2116 1769 1856
1988 2117 1796 1870
1989 2126 1818 1887
1990 2120 1809 1885
1991 2112 1824 1904
1992 2113 1786 1867
1993 2114 1735 1821
1994 2115 1761 1846
1995 2129 1862 1924
1996 2141 1938 1991
1997 2131 1943 2009
1998 2128 1995 2066
1999 2126 1986 2058
2000 2124 1954 2017
2001 2133 1970 2032
2002 2153 2021 2066
2003 2150 2012 2055
2004 2149 1971 2012
2005 2151 1939 1983
2006 2126 1867 1928
2007 2134 1825 1892
2008 2120 1778 1846
2009 2122 1738 1803
2010 2121 1667 1735
2011 2122 1718 1790
2012 2132 1782 1841
2013 2130 1798 1863
2014 2119 1810 1885
2015 2126 1838 1907
2016 2135 1919 1980
2017 2121 1957 2035
2018 2125 2002 2067
2019 2126 1965 2039
2020 2127 1992 2060
2021 2139 1987 2041
2022 2136 1973 2023
2023 2149 1927 1970
2024 2144 1836 1884
2025 2150 1802 1855
2026 2129 1753 1813
2027 2150 1755 1800
2028 2130 1736 1802
2029 2130 1753 1815
2030 2133 1756 1816
2031 2138 1795 1853
2032 2128 1822 1887
2033 2126 1825 1892
2034 2131 1825 1885
2035 2130 1834 1901
2036 2134 1859 1920
2037 2119 1871 1949
2038 2117 1904 1980
2039 2127 1921 1987
2040 2127 1995 2057
2041 2138 2055 2115
2042 2136 2041 2107
2043 2130 2030 2091
2044 2122 1936 2004
2045 2132 1838 1894
2046 2128 1740 1800
2047 2126 1685 1756
2048 2123 1717 1797
2049 2131 1775 1839
2050 2135 1749 1813
2051 2136 1766 1816
2052 2123 1747 1814
2053 2099 1745 1831
2054 2123 1756 1829
2055 2128 1766 1836
2056 2138 1783 1843
2057 2131 1825 1885
2058 2131 2011 2079
2059 2136 2095 2165
2060 2127 2122 2181
2061 2147 2075 2130
2062 2145 2026 2068
2063 2133 2012 2074
2064 2131 1866 1930
2065 2126 1774 1837
2066 2109 1658 1745
2067 2122 1745 1826
2068 2122 1784 1862
2069 2126 1774 1852
2070 2126 1761 1831
2071 2130 1751 1816
2072 2133 1739 1797
2073 2129 1774 1844
2074 2137 1834 1895
2075 2130 1891 1963
2076 2147 1947 1992
2077 2146 1907 1956
2078 2155 1918 1961
2079 2156 1880 1921
2080 2148 1919 1970
2081 2146 1964 2009
2082 2155 1930 1968
2083 2174 1918 1941
2084 2148 1838 1879
2085 2154 1754 1792
2086 2130 1669 1727
2087 2131 1627 1684
2088 2118 1627 1712
2089 2142 1730 1779
2090 2158 1728 1769
2091 2159 1799 1836
2092 2147 1837 1891
2093 2145 1863 1917
2094 2169 1853 1888
2095 2159 1851 1890
2096 2149 1876 1923
2097 2151 1855 1899
2098 2181 1857 1871
2099 2167 1838 1860
2100 2168 1845 1872
2101 2177 1848 1868
2102 2169 1863 1885
2103 2177 1882 1903
2104 2178 1853 1865
2105 2161 1771 1802
2106 2150 1695 1740
2107 2134 1713 1774
2108 2129 1757 1826
2109 2142 1852 1898
2110 2143 1790 1833
2111 2134 1814 1872
2112 2141 1782 1832
2113 2142 1697 1757
2114 2150 1771 1822
2115 2149 1845 1886
2116 2178 1938 1960
2117 2159 1903 1941
2118 2150 1869 1909
2119 2141 1787 1840
2120 2137 1788 1842
2121 2153 1793 1844
2122 2157 1813 1850
2123 2162 1809 1843
2124 2164 1775 1812
2125 2158 1751 1782
2126 2147 1699 1753
2127 2135 1715 1757
2128 2148 1695 1740
2129 2153 1702 1738
2130 2156 1703 1739
2131 2158 1725 1758
2132 2154 1782 1834
2133 2143 1892 1943
2134 2144 1982 2037
2135 2135 2006 2066
2136 2164 2027 2059
2137 2134 2072 2110
2138 2176 2127 2138
2139 2180 1959 1968
2140 2168 1887 1920
2141 2164 1844 1908
2142 1916 1652 1948
2143 2165 1862 1881
2144 2093 1630 1699
2145 2090 1648 1692
2146 1816 1402 1719
2147 2023 1617 1739
2148 1483 979 1721
2149 1736 1300 1728
2150 1924 1479 1740
2151 2074 1693 1763
2152 2164 1737 1767
2153 2125 1712 1819
2154 1834 1456 1829
2155 2103 1799 1879
2156 2156 1920 1954
2157 2157 2014 2049
2158 2183 2081 2090
2159 2189 2052 2061
2160 2183 2029 2048
2161 2176 1942 1957
2162 2153 1827 1876
2163 2156 1782 1822
2164 2180 1787 1810
2165 2186 1723 1734
2166 2169 1650 1677
2167 2171 1648 1707
2168 2147 1704 1746
2169 2155 1807 1841
2170 2139 1773 1807
2171 2163 1739 1778
2172 2184 1798 1835
2173 2079 1827 1878
2174 2042 1721 1843
2175 2135 1810 1877
2176 2009 1717 1936
2177 2135 1945 1987
2178 1981 1835 2045
2179 2002 1837 2054
2180 2155 1985 2051
2181 1806 1761 1975
2182 1877 1569 1913
2183 1962 1596 1817
2184 2140 1684 1706
2185 2168 1706 1738
2186 2151 1814 1852
2187 2170 1914 1940
2188 2151 1831 1851
2189 2137 1761 1829
2190 2167 1814 1838
2191 2184 1723 1857
2192 2173 1798 1834
2193 2169 1829 1846
2194 2166 1858 1859
2195 2169 1817 1882
2196 2199 1940 1934
2197 2104 1844 1924
2198 2185 1945 1958
2199 2199 1990 1990
2200 2213 2041 2028
2201 2192 2108 2111
2202 2188 2140 2140
2203 2164 2210 2123
2204 2111 2002 2065
2205 2216 1963 1919
2206 2197 1757 1798
2207 2165 1705 1771
2208 2096 1733 1802
2209 2180 1750 1767
2210 2178 1677 1717
2211 1960 1491 1739
2212 1939 1559 1758
2213 2176 1782 1802
2214 2201 1795 1794
2215 2002 1663 1807
2216 1614 1264 1900
2217 1183 876 1926
2218 599 359 1965
2219 488 185 1929
2220 1763 1416 1914
2221 1613 1377 2009
2222 1583 1519 2191
2223 1602 1579 2193
2224 1090 1124 2129
2225 1506 1431 2089
2226 1795 1940 2015
2227 1548 1214 1924
2228 2052 1610 1751
2229 1411 862 1694
2230 2062 1507 1633
2231 1663 1094 1710
2232 928 432 1761
2233 836 672 1765
2234 1326 944 1816
2235 2131 1731 1868
2236 1605 1346 1922
2237 1095 807 1949
2238 2194 1923 1962
2239 2112 1963 1971
2240 2130 1989 1987
2241 2240 2029 1996
2242 1772 1489 1956
2243 2105 1773 1924
2244 2255 1926 1866
2245 2183 1765 1836
2246 1777 1356 1770
2247 2221 1784 1746
2248 2193 1775 1775
2249 2248 1896 1844
2250 2242 1927 1884
2251 2238 1899 1854
2252 2097 1686 1802
2253 2200 1830 1801
2254 2234 1872 1822
2255 2213 1859 1819
2256 2075 1862 1855
2257 2157 1847 1902
2258 2252 2010 1941
2259 2219 2016 2015
2260 2261 2056 1994
2261 2112 1943 1970
2262 1969 1716 1957
2263 2217 2083 2052
2264 1810 1708 2108
2265 2146 1899 1996
2266 2085 1895 2047
2267 2095 1907 1929
2268 2233 1752 1719
2269 2120 1607 1678
2270 1921 1436 1674
2271 2208 1708 1682
2272 2166 1621 1628
2273 2172 1609 1631
2274 2229 1762 1728
2275 2185 1814 1805
2276 2219 1885 1851
2277 2108 1809 1882
2278 2116 1839 1943
2279 2225 1958 1927
2280 2218 1971 1914
2281 1972 1777 1974
2282 2215 2078 2062
2283 2240 2124 2071
2284 2044 1824 1949
2285 1519 1256 1925
2286 2196 1810 1799
2287 2227 1715 1681
2288 1276 639 1583
2289 646 29 1584
2290 17 0 1523
2291 447 0 1611
2292 0 0 1726
2293 0 0 1888
2294 0 0 2051
2295 0 0 2120
2296 0 0 2138
2297 0 0 1997
2298 1404 1064 1916
2299 0 0 1895
2300 0 0 1845
2301 168 0 1775
2302 1023 1518 1813
2303 1838 1539 1813
2304 1614 1149 1781
2305 2184 1752 1746
2306 1754 1246 1736
2307 876 389 1739
2308 888 333 1684
2309 342 0 1676
2310 128 0 1705
2311 1117 623 1728
2312 2175 1730 1742
2313 1508 1076 1776
2314 2192 1850 1855
2315 2239 1940 1899
2316 2249 2038 1990
2317 2169 2005 2016
2318 1970 1800 2011
2319 2288 2072 1976
2320 2303 2040 1933
2321 2311 2029 1910
2322 2315 2010 1900
2323 2321 1970 1847
2324 2324 1956 1834
2325 2334 2000 1861
2326 2343 2081 1940
2327 2350 2133 1979
2328 2343 2123 1973
2329 2357 2124 1959
2330 2250 1973 1870
2331 2347 1995 1840
2332 2351 1926 1763
2333 2344 1905 1754
2334 2294 1873 1788
2335 1737 1398 1831
2336 2288 1994 1904
2337 2380 2194 2009
2338 2364 2220 2040
2339 2408 2339 2132
2340 2247 2374 2279
2341 2296 2509 2332
2342 2122 2271 2354
2343 2368 2510 2359
2344 2288 2371 2291
2345 2047 1882 2028
2346 2224 1992 1950
2347 2221 1941 1948
2348 2214 1974 1950
2349 1543 1269 1935
2350 2343 2054 1927
2351 2416 2162 1930
2352 2197 1987 1949
2353 2335 2124 1967
2354 1957 1883 2077
2355 2250 2214 2105
2356 2392 2321 2112
2357 2405 2315 2081
2358 2141 2084 2062
2359 2370 2163 1994
2360 2392 2121 1930
2361 2372 2119 1972
2362 2351 2263 2081
2363 2307 2228 2074
2364 2326 2177 2042
2365 2337 2202 2057
2366 2118 1954 2003
2367 2309 1929 1817
2368 2263 1705 1701
2369 2290 1763 1670
2370 2281 1742 1666
2371 1955 1528 1736
2372 2071 1690 1781
2373 1703 1639 1821
2374 1400 1029 1844
2375 2127 1844 1853
2376 2266 1977 1904
2377 2287 2003 1909
2378 2317 2067 1945
2379 1842 1544 1945
2380 1468 1287 1922
2381 1991 1652 1889
2382 2151 1914 1864
2383 2215 1947 1848
2384 2082 1924 1883
2385 2307 2146 2047
2386 2238 2180 2090
2387 2227 1958 1982
2388 1246 979 1860
2389 2222 1922 1843
2390 1944 1555 1802
2391 2045 1562 1726
2392 1999 1429 1618
2393 2081 1711 1682
2394 1825 1572 1867
2395 2214 2004 1959
2396 2279 2090 1986
2397 2298 2065 1950
2398 2315 2050 1925
2399 2287 2001 1899
2400 2317 2011 1884
2401 2275 1974 1883
2402 2292 1951 1853
2403 2308 1973 1859
2404 2272 2007 1920
2405 2320 2029 1897
2406 2315 1931 1805
2407 2318 1875 1754
2408 2181 1729 1740
2409 2305 1877 1762
2410 1750 1319 1769
2411 1950 1549 1790
2412 1639 1259 1812
2413 2014 1729 1873
2414 2175 2048 1974
2415 1956 1815 2025
2416 2085 2111 2067
2417 2307 2222 2109
2418 2296 2115 2005
2419 2342 2092 1948
2420 2341 2097 1952
2421 2341 2002 1855
2422 2331 1955 1822
2423 2345 1959 1812
2424 2337 1947 1808
2425 2312 1932 1800
2426 2331 1904 1772
2427 2326 1908 1770
2428 2314 1876 1760
2429 2317 1874 1756
2430 2320 1882 1756
2431 2320 1937 1814
2432 2326 1974 1844
2433 2329 1987 1855
2434 2342 1997 1853
2435 2342 1981 1847
2436 2343 1974 1837
2437 2343 2000 1869
2438 2349 2180 2030
2439 2347 2238 2101
2440 2342 2283 2132
2441 2336 2211 2075
2442 2341 2162 2004
2443 2354 2040 1872
2444 2320 1992 1852
2445 2334 1985 1853
2446 2318 1949 1829
2447 2279 1890 1790
2448 2280 1876 1760
2449 2321 1818 1693
2450 2220 1762 1655
2451 2211 1702 1632
2452 2167 1590 1623
2453 2304 1858 1766
2454 1945 1923 1896
2455 1301 1086 2023
2456 2195 1995 2054
2457 2327 2140 1999
2458 1182 930 1973
2459 545 347 2013
2460 2302 2167 2047
2461 2324 2095 1967
2462 1925 1613 1926
2463 934 582 1838
2464 1163 843 1770
2465 1901 1513 1730
2466 1385 973 1739
2467 611 79 1698
2468 0 0 1645
2469 0 0 1621
2470 1689 1060 1607
2471 603 285 1664
2472 2136 1631 1736
2473 2200 1788 1771
2474 2182 1891 1862
2475 2276 2035 1978
2476 2067 2126 2063
2477 1609 1556 2135
2478 2307 2261 2141
2479 2287 2173 2052
2480 2334 2068 1916
2481 2356 2027 1861
2482 2343 1932 1780
2483 2372 1884 1712
2484 2331 1844 1703
2485 2316 1782 1709
2486 2331 1870 1727
2487 2368 1885 1716
2488 2209 1694 1660
2489 2375 1826 1662
2490 2361 1870 1692
2491 2135 1643 1764
2492 2361 1959 1804
2493 2362 2012 1852
2494 2327 2056 1894
2495 2378 2092 1912
2496 2383 2106 1920
2497 2389 2142 1949
2498 2386 2138 1945
2499 2386 2101 1914
2500 2382 2094 1906
2501 2401 2080 1878
2502 2409 2118 1910
2503 2401 2118 1906
2504 2384 2026 1849
2505 2371 1995 1813
2506 2370 1904 1724
2507 2379 1894 1711
2508 2363 1854 1695
2509 2340 1835 1723
2510 2375 1898 1723
2511 2377 1939 1764
2512 2379 1976 1795
2513 2373 1999 1840
2514 2360 2063 1906
2515 2367 2068 1907
2516 2357 2073 1980
2517 2370 2230 2046
2518 2351 2138 2020
2519 2364 2137 1961
2520 2384 2177 1982
2521 2395 2170 1967
2522 2405 2129 1915
2523 2412 2104 1882
2524 2410 2002 1780
2525 2410 1988 1771
2526 2378 1956 1771
2527 2394 2001 1804
2528 2373 1982 1809
2529 2376 1995 1813
2530 2317 1928 1806
2531 2384 2010 1826
2532 2385 2006 1843
2533 2382 2009 1829
2534 2418 2066 1849
2535 2411 2095 1887
2536 2407 2151 1942
2537 2420 2216 1990
2538 2417 2263 2040
2539 2409 2212 1996
2540 2422 2214 1983
2541 2410 2170 1950
2542 2416 2162 1951
2543 2416 2202 1981
2544 2409 2157 1937
2545 2406 2176 1969
2546 2401 2182 1976
2547 2330 2140 1959
2548 2380 2031 1847
2549 2385 2002 1815
2550 2390 2135 1941
2551 2383 2315 2125
2552 2387 2363 2170
2553 2385 2367 2185
2554 2389 2265 2063
2555 2389 2069 1869
2556 2385 1986 1795
2557 2389 2120 1929
2558 2408 2375 2173
2559 2415 2437 2219
2560 2418 2241 2014
2561 2423 2046 1815
2562 2394 1980 1784
2563 2400 1992 1790
2564 2388 2021 1829
2565 2372 2033 1852
2566 2354 1964 1796
2567 2341 1924 1759
2568 2392 1910 1707
2569 2389 2027 1826
2570 2408 2048 1838
2571 2358 1951 1780
2572 2357 1963 1792
2573 2389 2019 1832
2574 2396 2091 1889
2575 2363 2080 1897
2576 2386 2147 1965
2577 2408 2240 2023
2578 2397 2264 2061
2579 2392 2234 2036
2580 2398 2219 2010
2581 2412 2204 1987
2582 2413 2217 1994
2583 2380 2184 2002
2584 2381 2159 1981
2585 2338 2123 1982
2586 2328 2091 1944
2587 2365 2034 1867
2588 2358 1966 1811
2589 2361 1978 1814
2590 2365 1993 1831
2591 2384 2023 1842
2592 2382 2037 1848
2593 2373 2047 1872
2594 2379 2108 1927
2595 2388 2138 1946
2596 2396 2195 1992
2597 2397 2208 2013
2598 2394 2235 2041
2599 2397 2234 2024
2600 2395 2221 2016
2601 2387 2213 2017
2602 2389 2197 2005
2603 2395 2203 1997
2604 2380 2133 1951
2605 2374 2104 1917
2606 2357 2060 1896
2607 2360 2014 1863
2608 2359 2004 1847
2609 2360 2013 1859
2610 2363 2000 1839
2611 2350 2005 1863
2612 2347 2051 1901
2613 2351 2082 1927
2614 2366 2129 1957
2615 2358 2143 1987
2616 2364 2118 1954
2617 2352 2124 1972
2618 2362 2165 1999
2619 2365 2239 2073
2620 2366 2366 2200
2621 2372 2435 2268
2622 2354 2483 2342
2623 2356 2539 2386
2624 2338 2302 2155
2625 2339 2041 1889
2626 2332 1783 1642
2627 2343 1645 1489
2628 2344 1723 1579
2629 2345 1795 1649
2630 2338 1881 1748
2631 2338 1912 1775
2632 2332 1876 1743
2633 2329 1924 1802
2634 2334 2014 1886
2635 2337 2090 1958
2636 2347 2094 1954
2637 2349 2094 1951
2638 2347 2118 1961
2639 2353 2143 1987
2640 2338 2190 2047
2641 2330 2155 2015
2642 2317 2070 1940
2643 2341 2089 1941
2644 2330 2033 1900
2645 2329 1948 1807
2646 2325 1899 1770
2647 2335 1922 1788
2648 2324 1929 1803
2649 2325 1928 1797
2650 2321 1918 1792
2651 2325 1865 1733
2652 2313 1860 1750
2653 2305 1860 1767
2654 2325 1940 1810
2655 2323 1991 1866
2656 2334 2044 1903
2657 2338 1992 1858
2658 2329 2043 1920
2659 2339 2073 1926
2660 2348 2057 1910
2661 2335 2047 1905
2662 2306 2021 1902
2663 2334 2054 1916
2664 2286 1969 1871
2665 2321 1958 1833
2666 2270 1857 1764
2667 2295 1821 1715
2668 2296 1789 1686
2669 2318 1837 1718
2670 2319 1874 1748
2671 2311 1882 1765
2672 2319 1890 1766
2673 2318 1905 1785
2674 2299 1982 1871
2675 2321 2032 1913
2676 2312 2033 1912
2677 2304 2006 1896
2678 2293 1990 1889
2679 2312 2102 1985
2680 2341 2294 2157
2681 2351 2383 2233
2682 2339 2478 2336
2683 2324 2420 2285
2684 2319 2231 2095
2685 2314 2114 1987
2686 2303 2000 1888
2687 2263 1840 1758
2688 2291 1620 1523
2689 2292 1542 1448
2690 2295 1665 1571
2691 2302 1754 1657
2692 2300 1836 1736
2693 2297 1912 1811
2694 2313 1991 1881
2695 2298 2023 1907
2696 2319 2044 1920
2697 2267 2002 1890
2698 2289 1983 1870
2699 2324 2003 1884
2700 2310 2129 2003
2701 2316 2098 1966
2702 2315 2016 1876
2703 2350 1986 1834
2704 2307 1928 1801
2705 2267 1942 1865
2706 2306 1959 1848
2707 2268 1905 1819
2708 2262 1813 1744
2709 2310 1814 1704
2710 2287 1794 1693
2711 2313 1838 1729
2712 2307 1868 1756
2713 2303 1891 1788
2714 2278 1931 1841
2715 2221 1929 1880
2716 2214 1995 1965
2717 2216 2005 1974
2718 2225 2022 1990
2719 2260 2062 1989
2720 2260 2068 1997
2721 2264 2085 2009
2722 2251 2067 1997
2723 2244 2025 1968
2724 2223 1992 1959
2725 2282 1933 1837
2726 2285 1752 1654
2727 2279 1672 1582
2728 2262 1656 1583
2729 2268 1689 1608
2730 2111 1558 1650
2731 2089 1592 1696
2732 2167 1760 1778
2733 2147 1855 1914
2734 2004 1902 2002
2735 2312 2153 2038
2736 2316 2201 2082
2737 2204 2126 2082
2738 2291 2160 2035
2739 2299 2149 2022
2740 2115 1968 2001
2741 2330 2051 1915
2742 2309 1968 1863
2743 2177 1848 1886
2744 2187 1804 1802
2745 2047 1714 1797
2746 2132 1726 1805
2747 2011 1609 1805
2748 2277 1751 1682
2749 2280 1752 1661
2750 2310 1790 1681
2751 2314 1823 1709
2752 2320 1812 1683
2753 2308 1775 1666
2754 2226 1835 1785
2755 2021 1748 1918
2756 2328 2277 2149
2757 2309 2422 2307
2758 2336 2413 2274
2759 2324 2306 2169
2760 2111 2128 2171
2761 1913 1642 1933
2762 2282 1849 1825
2763 1495 1071 1793
2764 1815 1318 1718
2765 2306 1805 1711
2766 2184 1681 1728
2767 2250 1806 1744
2768 1969 1493 1744
2769 2228 1776 1742
2770 1824 1445 1754
2771 1946 1523 1804
2772 1580 1225 1839
2773 2258 1910 1845
2774 2045 1687 1896
2775 1785 1474 1899
2776 1635 1307 1914
2777 1277 1083 1977
2778 972 808 2021
2779 774 551 2002
2780 2073 1811 2002
2781 2184 1986 2037
2782 1303 1144 2027
2783 1634 1383 1947
2784 1794 1459 1869
2785 2092 1717 1856
2786 2264 1848 1798
2787 942 544 1796
2788 2269 1809 1732
2789 2159 1686 1783
2790 2304 1973 1868
2791 2285 1971 1878
2792 1697 1338 1851
2793 1802 1582 1845
2794 1489 1125 1879
2795 2204 1953 1900
2796 2306 2057 1954
2797 2294 2092 1985
2798 2089 1895 1994
2799 2115 2087 2009
2800 2322 2203 2070
2801 1652 1540 2079
2802 2314 2093 1957
2803 2294 1980 1860
2804 2202 1832 1809
2805 2188 1920 1888
2806 2312 2061 1940
2807 2318 2042 1924
2808 2311 1992 1880
2809 2306 2023 1922
2810 2217 1836 1857
2811 1724 1372 1871
2812 1850 1564 1948
2813 2253 2026 1976
2814 2319 2048 1928
2815 2318 2028 1908
2816 2344 2018 1880
2817 2351 2107 1958
2818 2333 2235 2093
2819 2340 2315 2177
2820 2111 2236 2351
2821 2268 2413 2361
2822 2343 2307 2149
2823 2354 2007 1849
2824 2347 1768 1624
2825 2347 1792 1646
2826 2326 1846 1725
2827 2304 1964 1861
2828 2317 1972 1858
2829 2328 1976 1856
2830 2327 2020 1906
2831 2316 1989 1863
2832 2327 1932 1803
2833 2200 1812 1817
2834 2362 1990 1829
2835 2333 2146 2006
2836 2362 2418 2259
2837 2367 2451 2286
2838 2361 2419 2262
2839 2351 2307 2144
2840 2342 2128 1976
2841 2352 2050 1900
2842 2341 1992 1840
2843 2357 1976 1806
2844 2341 1927 1771
2845 2349 1904 1751
2846 2132 1800 1773
2847 2176 1788 1821
2848 2287 1971 1875
2849 2340 2092 1955
2850 2326 2091 1955
2851 2128 1760 1836
2852 2323 1943 1820
2853 2286 1945 1830
2854 2324 2008 1890
2855 2318 2129 2006
2856 2341 2275 2129
2857 2345 2313 2165
2858 2349 2292 2139
2859 2344 2279 2121
2860 2347 2196 2043
2861 2360 2028 1872
2862 2359 2021 1868
2863 2357 2110 1940
2864 2351 2080 1921
2865 2344 2044 1888
2866 2336 2027 1884
2867 2340 1982 1834
2868 2242 1751 1697
2869 2332 1817 1676
2870 2352 1881 1726
2871 2198 1844 1818
2872 2337 2005 1865
2873 2322 2068 1950
2874 2302 2192 2080
2875 2317 2181 2051
2876 2343 2159 2008
2877 2337 2125 1976
2878 2347 2154 2008
2879 2336 2242 2097
2880 2330 2306 2175
2881 2337 2245 2098
2882 2339 2187 2036
2883 2354 2134 1972
2884 2343 2103 1960
2885 2342 2102 1959
2886 2335 2040 1903
2887 2328 2000 1865
2888 2326 1989 1859
2889 2338 1990 1844
2890 2328 1981 1851
2891 2316 1989 1870
2892 2327 2033 1903
2893 2317 2089 1969
2894 2323 2109 1981
2895 2320 2111 1978
2896 2335 2128 1985
2897 2331 2145 2003
2898 2341 2230 2088
2899 2349 2284 2133
2900 2340 2257 2108
2901 2337 2185 2035
2902 2342 2095 1945
2903 2352 2127 1980
2904 2334 2051 1905
2905 2318 1994 1878
2906 2316 2065 1955
2907 2323 2287 2170
2908 2326 2333 2206
2909 2322 2177 2047
2910 2337 2124 1981
2911 2329 2076 1947
2912 2324 2034 1910
2913 2308 1961 1855
2914 2312 1982 1869
2915 2316 2072 1955
2916 2323 2196 2071
2917 2325 2184 2058
2918 2329 2211 2077
2919 2340 2176 2033
2920 2341 2124 1981
2921 2346 2178 2031
2922 2359 2277 2113
2923 2368 2313 2148
2924 2355 2328 2175
2925 2345 2239 2093
2926 2324 2036 1903
2927 2323 1923 1799
2928 2319 1852 1729
2929 2337 1916 1782
2930 2343 1959 1821
2931 2338 1938 1797
2932 2325 1933 1805
2933 2320 1963 1847
2934 2333 2170 2043
2935 2346 2349 2201
2936 2361 2408 2257
2937 2364 2430 2258
2938 2377 2359 2168
2939 2379 2234 2047
2940 2363 2186 2015
2941 2364 2197 2034
2942 2352 2123 1965
2943 2365 2132 1970
2944 2357 2141 1974
2945 2366 2138 1969
2946 2362 2085 1918
2947 2358 2054 1889
2948 2362 2054 1893
2949 2349 2009 1857
2950 2357 2046 1898
2951 2361 2069 1904
2952 2356 2032 1870
2953 2351 2024 1878
2954 2369 2086 1918
2955 2374 2163 1988
2956 2378 2231 2050
2957 2375 2217 2032
2958 2397 2247 2047
2959 2393 2261 2066
2960 2375 2268 2089
2961 2362 2251 2081
2962 2350 2312 2158
2963 2361 2402 2246
2964 2346 2257 2100
2965 2339 2172 2015
2966 2324 2024 1877
2967 2348 1959 1810
2968 2300 1875 1750
2969 2293 1853 1743
2970 2326 1894 1761
2971 2334 1966 1828
2972 2312 2031 1915
2973 2309 2069 1965
2974 2325 2179 2046
2975 2327 2224 2093
2976 2332 2261 2121
2977 2325 2239 2116
2978 2321 2228 2098
2979 2273 2152 2070
2980 2293 2165 2083
2981 2281 2200 2089
2982 2338 2218 2073
2983 2343 2217 2070
2984 2357 2168 2004
2985 2357 2156 1997
2986 2339 2080 1932
2987 2343 2035 1896
2988 2342 2037 1901
2989 2337 2022 1887
2990 2333 2023 1895
2991 2331 2066 1928
2992 2336 2078 1937
2993 2318 2049 1929
2994 2327 2097 1969
2995 2320 2156 2036
2996 2328 2302 2169
2997 2332 2348 2219
2998 2339 2389 2250
2999 2353 2416 2270
3000 2356 2484 2335
3001 2335 2598 2440
3002 2351 2558 2408
3003 2350 2442 2280
3004 2347 2195 2030
3005 2351 2033 1881
3006 2340 1897 1752
3007 2345 1848 1708
3008 2332 1928 1794
3009 2332 1987 1858
3010 2341 2024 1883
3011 2341 1999 1853
3012 2344 2019 1875
3013 2333 2046 1908
3014 2343 2167 2032
3015 2345 2342 2201
3016 2361 2436 2282
3017 2267 2360 2296
3018 2379 2529 2351
3019 2364 2527 2365
3020 2357 2433 2267
3021 2358 2190 2017
3022 2340 2083 1931
3023 2381 2224 2033
3024 2373 2274 2092
3025 2363 2277 2107
3026 2353 2243 2079
3027 2358 2125 1958
3028 2356 1997 1832
3029 2333 2071 1919
3030 2327 2129 1994
3031 2350 2188 2032
3032 2359 2061 1893
3033 2282 1979 1836
3034 2369 2161 1996
3035 2360 2300 2131
3036 2383 2330 2144
3037 2392 2344 2144
3038 2400 2294 2095
3039 2390 2344 2142
3040 2383 2365 2178
3041 2376 2362 2186
3042 2367 2373 2188
3043 2397 2365 2160
3044 2337 2326 2177
3045 2364 2297 2130
3046 2324 2246 2104
3047 2322 2188 2052
3048 2343 2104 1950
3049 2357 2039 1881
3050 2347 2038 1887
3051 2286 2053 1947
3052 2351 2186 2027
3053 2344 2148 1990
3054 2350 2179 2016
3055 2364 2165 1991
3056 2328 2137 2004
3057 2374 2248 2062
3058 2375 2323 2145
3059 2335 2282 2104
3060 2373 2352 2174
3061 2365 2389 2215
3062 2369 2305 2127
3063 2379 2290 2096
3064 2362 2236 2064
3065 2355 2255 2090
3066 2343 2223 2078
3067 2337 2242 2101
3068 2333 2146 1992
3069 2336 2042 1903
3070 2347 2069 1918
3071 2343 2013 1865
3072 2337 2029 1896
3073 2312 2112 1993
3074 2336 2157 2013
3075 2332 2102 1964
3076 2348 2079 1925
3077 2359 2068 1915
3078 2355 2217 2064
3079 2352 2371 2215
3080 2336 2406 2271
3081 2335 2438 2304
3082 2354 2421 2266
3083 2368 2360 2187
3084 2355 2281 2124
3085 2319 2219 2082
3086 2243 2050 2017
3087 2301 2091 1986
3088 2308 2131 2017
3089 2330 2158 2013
3090 2296 2107 1986
3091 2319 2189 2065
3092 2313 2250 2129
3093 2301 2198 2094
3094 2288 2118 2015
3095 2315 2128 2009
3096 2310 2189 2062
3097 2334 2250 2105
3098 2344 2201 2053
3099 2345 2169 2019
3100 2338 2123 1980
3101 2345 2097 1957
3102 2330 2126 1999
3103 2323 2208 2084
3104 2307 2374 2268
3105 2313 2396 2280
3106 2318 2345 2224
3107 2320 2293 2170
3108 2314 2170 2051
3109 2310 2020 1907
3110 2308 2008 1907
3111 2300 2028 1925
3112 2308 2012 1894
3113 2300 2036 1940
3114 2298 2167 2060
3115 2310 2214 2096
3116 2318 2280 2158
3117 2316 2310 2187
3118 2342 2315 2171
3119 2339 2248 2101
3120 2332 2270 2136
3121 2332 2271 2131
3122 2334 2307 2169
3123 2342 2292 2140
3124 2335 2195 2048
3125 2334 2108 1968
3126 2336 2054 1918
3127 2333 2083 1952
3128 2327 2121 1983
3129 2331 2078 1941
3130 2346 2140 1997
3131 2346 2255 2105
3132 2357 2401 2255
3133 2346 2458 2311
3134 2373 2452 2271
3135 2372 2372 2191
3136 2381 2342 2161
3137 2384 2308 2113
3138 2397 2285 2083
3139 2408 2317 2098
3140 2401 2300 2099
3141 2404 2329 2105
3142 2420 2367 2138
3143 2432 2405 2174
3144 2415 2443 2230
3145 2416 2548 2329
3146 2395 2605 2408
3147 2406 2558 2354
3148 2406 2540 2329
3149 2407 2540 2328
3150 2411 2455 2244
3151 2410 2347 2136
3152 2399 2312 2102
3153 2409 2343 2123
3154 2431 2471 2240
3155 2442 2594 2352
3156 2452 2639 2384
3157 2451 2675 2433
3158 2442 2752 2501
3159 2446 2744 2496
3160 2438 2708 2458
3161 2454 2700 2443
3162 2460 2676 2414
3163 2436 2644 2389
3164 2416 2539 2314
3165 2421 2460 2238
3166 2420 2457 2226
3167 2409 2403 2181
3168 2396 2262 2052
3169 2372 2271 2096
3170 2360 2209 2037
3171 2354 2264 2117
3172 2336 2429 2300
3173 2321 2537 2418
3174 2314 2613 2500
3175 2307 2566 2459
3176 2301 2428 2328
3177 2287 2326 2226
3178 2290 2352 2264
3179 2284 2448 2355
3180 2290 2334 2237
3181 2291 2284 2182
3182 2297 2317 2214
3183 2308 2341 2238
3184 2279 2285 2204
3185 2301 2309 2200
3186 2297 2236 2124
3187 2294 2140 2049
3188 2287 2090 1992
3189 2281 2059 1964
3190 2278 2024 1931
3191 2247 2043 1986
3192 2235 2055 1968
3193 2281 2071 1978
3194 2254 2146 2063
3195 2290 2184 2086
3196 2280 2244 2163
3197 2289 2333 2247
3198 2297 2388 2291
3199 2294 2429 2338
3200 2294 2429 2338
3201 2303 2403 2291
3202 2307 2452 2346
3203 2315 2511 2394
3204 2314 2398 2282
3205 2321 2403 2276
3206 2264 2176 2136
3207 2230 2082 2053
3208 2284 2103 2034
3209 2238 2065 2051
3210 1793 1601 2030
3211 2228 2044 2030
3212 2181 2147 2142
3213 2232 2282 2226
3214 2234 2286 2229
3215 1985 2029 2115
3216 1513 1501 2206
3217 2266 2340 2269
3218 1847 1962 2321
3219 2254 2319 2243
3220 2153 2215 2173
3221 2194 2142 2118
3222 2283 2227 2138
3223 2293 2328 2220
3224 2282 2333 2251
3225 2284 2362 2269
3226 2279 2454 2361
3227 2276 2402 2315
3228 2274 2270 2182
3229 2281 2264 2174
3230 2251 2241 2146
3231 2280 2158 2066
3232 2285 2212 2125
3233 2275 2212 2122
3234 2267 2208 2105
3235 2288 2188 2086
3236 2298 2319 2224
3237 2290 2392 2289
3238 2301 2286 2174
3239 2301 2233 2132
3240 2284 2403 2316
3241 2306 2465 2351
3242 2311 2395 2278
3243 2314 2430 2317
3244 2317 2636 2523
3245 2306 2720 2608
3246 2284 2675 2585
3247 2285 2490 2399
3248 2283 2308 2209
3249 2281 2200 2105
3250 2292 2183 2083
3251 2300 2011 1915
3252 2298 1947 1847
3253 2292 1963 1864
3254 2234 2013 1972
3255 2268 2138 2058
3256 2288 2281 2178
3257 2292 2326 2225
3258 2310 2376 2261
3259 2320 2388 2261
3260 2323 2357 2227
3261 2322 2346 2220
3262 2302 2365 2251
3263 2300 2357 2249
3264 2312 2299 2180
3265 2298 2294 2189
3266 2252 2225 2182
3267 2231 2234 2151
3268 2275 2213 2116
3269 2281 2200 2107
3270 2283 2180 2080
3271 2220 2144 2103
3272 2242 2135 2107
3273 2194 2149 2142
3274 2256 2315 2251
3275 2276 2417 2331
3276 2293 2516 2413
3277 2293 2565 2469
3278 2293 2500 2402
3279 2294 2408 2307
3280 2278 2387 2288
3281 2309 2374 2255
3282 2305 2362 2257
3283 2312 2407 2290
3284 2320 2384 2260
3285 2311 2330 2215
3286 2289 2314 2215
3287 2290 2266 2162
3288 2286 2170 2068
3289 2298 2150 2039
3290 2307 2195 2073
3291 2299 2245 2135
3292 2308 2366 2265
3293 2297 2458 2359
3294 2294 2537 2441
3295 2294 2506 2399
3296 2338 2518 2381
3297 2327 2477 2350
3298 2331 2493 2368
3299 2332 2583 2451
3300 2318 2559 2433
3301 2322 2486 2359
3302 2319 2385 2256
3303 2323 2335 2208
3304 2306 2347 2236
3305 2312 2332 2207
3306 2317 2268 2141
3307 2311 2288 2169
3308 2306 2277 2154
3309 2312 2341 2229
3310 2317 2399 2270
3311 2324 2354 2220
3312 2318 2344 2208
3313 2313 2345 2229
3314 2317 2375 2253
3315 2318 2344 2213
3316 2328 2365 2236
3317 2332 2384 2245
3318 2318 2429 2293
3319 2332 2447 2315
3320 2326 2439 2309
3321 2339 2368 2222
3322 2345 2418 2274
3323 2352 2508 2349
3324 2328 2433 2278
3325 2349 2330 2164
3326 2324 2174 2040
3327 2322 2446 2322
3328 2326 2637 2513
3329 2337 2725 2586
3330 2338 2678 2530
3331 2333 2551 2408
3332 2348 2395 2233
3333 2344 2236 2074
3334 2349 2178 2017
3335 2348 2193 2035
3336 2362 2248 2064
3337 2370 2266 2085
3338 2364 2506 2340
3339 2374 2658 2478
3340 2366 2702 2526
3341 2377 2779 2595
3342 2369 2686 2501
3343 2368 2439 2258
3344 2359 2231 2052
3345 2362 2192 2009
3346 2351 2259 2094
3347 2353 2364 2202
3348 2353 2303 2137
3349 2339 2250 2110
3350 2340 2338 2186
3351 2317 2379 2247
3352 2295 2410 2297
3353 2337 2443 2305
3354 2347 2458 2305
3355 2355 2485 2317
3356 2369 2514 2337
3357 2352 2464 2294
3358 2357 2459 2286
3359 2375 2480 2292
3360 2349 2482 2321
3361 2367 2481 2300
3362 2333 2464 2313
3363 2240 2417 2361
3364 2347 2451 2293
3365 2335 2411 2252
3366 2340 2414 2264
3367 2347 2431 2278
3368 2335 2390 2230
3369 2330 2351 2216
3370 2352 2343 2185
3371 2346 2291 2153
3372 2302 2287 2168
3373 2292 2282 2169
3374 2275 2356 2272
3375 2259 2420 2348
3376 2276 2517 2421
3377 2365 2642 2466
3378 2371 2665 2492
3379 2388 2659 2467
3380 2378 2621 2434
3381 2377 2552 2365
3382 2371 2540 2363
3383 2367 2572 2394
3384 2379 2562 2374
3385 2377 2551 2364
3386 2363 2524 2350
3387 2345 2449 2292
3388 2344 2337 2175
3389 2346 2273 2114
3390 2338 2298 2150
3391 2334 2423 2283
3392 2347 2571 2421
3393 2342 2540 2386
3394 2346 2549 2398
3395 2347 2621 2478
3396 2348 2732 2581
3397 2343 2659 2507
3398 2348 2617 2463
3399 2372 2598 2423
3400 2354 2503 2339
3401 2339 2459 2316
3402 2346 2520 2368
3403 2358 2535 2359
3404 2364 2465 2290
3405 2350 2428 2271
3406 2332 2391 2252
3407 2328 2362 2228
3408 2331 2326 2186
3409 2336 2328 2184
3410 2325 2335 2201
3411 2317 2364 2241
3412 2318 2409 2285
3413 2314 2434 2315
3414 2320 2458 2334
3415 2332 2507 2369
3416 2342 2628 2479
3417 2353 2696 2534
3418 2345 2672 2517
3419 2333 2556 2412
3420 2329 2435 2294
3421 2337 2399 2262
3422 2325 2443 2317
3423 2330 2480 2350
3424 2321 2561 2437
3425 2317 2548 2420
3426 2315 2484 2360
3427 2314 2426 2301
3428 2319 2278 2143
3429 2311 2117 1996
3430 2305 2146 2037
3431 2305 2495 2397
3432 2293 2667 2556
3433 2289 2625 2523
3434 2292 2620 2513
3435 2304 2593 2476
3436 2316 2520 2390
3437 2312 2392 2269
3438 2306 2332 2215
3439 2312 2307 2187
3440 2307 2284 2163
3441 2317 2318 2198
3442 2314 2346 2230
3443 2316 2331 2212
3444 2318 2281 2150
3445 2303 2281 2173
3446 2294 2316 2219
3447 2289 2331 2243
3448 2290 2364 2277
3449 2280 2370 2281
3450 2276 2379 2294
3451 2284 2330 2236
3452 2281 2235 2138
3453 2286 2203 2110
3454 2286 2292 2195
3455 2291 2380 2280
3456 2297 2440 2332
3457 2297 2485 2380
3458 2302 2511 2403
3459 2304 2528 2413
3460 2293 2404 2300
3461 2275 2332 2239
3462 2278 2354 2267
3463 2290 2396 2296
3464 2301 2424 2316
3465 2283 2440 2344
3466 2280 2373 2288
3467 2264 2336 2266
3468 2258 2283 2212
3469 2273 2274 2187
3470 2277 2302 2216
3471 2277 2292 2206
3472 2275 2317 2231
3473 2284 2324 2233
3474 2282 2327 2233
3475 2305 2349 2246
3476 2292 2405 2308
3477 2293 2429 2326
3478 2293 2524 2426
3479 2290 2575 2475
3480 2291 2506 2411
3481 2292 2559 2467
3482 2287 2572 2468
3483 2292 2485 2383
3484 2277 2423 2338
3485 2256 2393 2324
3486 2252 2401 2330
3487 2266 2326 2243
3488 2273 2322 2245
3489 2269 2281 2200
3490 2276 2196 2108
3491 2263 2222 2142
3492 2267 2230 2151
3493 2259 2215 2143
3494 2252 2301 2247
3495 2256 2395 2336
3496 2272 2449 2378
3497 2283 2469 2378
3498 2282 2500 2405
3499 2288 2465 2361
3500 2278 2355 2265
3501 2284 2257 2162
3502 2282 2270 2181
3503 2287 2461 2378
3504 2278 2673 2587
3505 2276 2753 2668
3506 2281 2704 2610
3507 2287 2588 2486
3508 2274 2315 2227
3509 2253 2120 2046
3510 2251 2017 1945
3511 2224 2074 2026
3512 2217 2254 2218
3513 2201 2394 2385
3514 2186 2306 2273
3515 2266 2418 2347
3516 2222 2553 2524
3517 2270 2706 2612
3518 2283 2719 2625
3519 2288 2710 2605
3520 2220 2646 2583
3521 2225 2584 2517
3522 2284 2490 2391
3523 2274 2429 2325
3524 2267 2323 2224
3525 2273 2302 2206
3526 2274 2228 2142
3527 2273 2167 2082
3528 2273 2129 2041
3529 2266 2149 2073
3530 2197 2187 2160
3531 2251 2282 2214
3532 2258 2304 2230
3533 2256 2305 2241
3534 2255 2375 2303
3535 2271 2399 2321
3536 2277 2424 2340
3537 2278 2428 2340
3538 2261 2415 2335
3539 2267 2503 2429
3540 2263 2620 2552
3541 2269 2695 2615
3542 2256 2648 2566
3543 2266 2564 2473
3544 2268 2423 2332
3545 2271 2394 2310
3546 2161 2310 2321
3547 2259 2463 2393
3548 2263 2424 2352
3549 2275 2317 2233
3550 2258 2224 2137
3551 2233 2100 2056
3552 2262 2205 2132
3553 2205 2219 2204
3554 2259 2447 2381
3555 2186 2544 2528
3556 2230 2721 2654
3557 2245 2638 2568
3558 2258 2586 2505
3559 2275 2550 2459
3560 2275 2568 2487
3561 2282 2558 2461
3562 2273 2451 2359
3563 2093 2270 2275
3564 2255 2284 2212
3565 2251 2285 2220
3566 2234 2210 2166
3567 2227 2172 2128
3568 2205 2152 2110
3569 2227 2264 2220
3570 2247 2497 2442
3571 2238 2663 2612
3572 2221 2693 2659
3573 2156 2600 2649
3574 1951 2488 2698
3575 2056 2511 2614
3576 2197 2425 2407
3577 2175 2227 2196
3578 2254 2234 2164
3579 2247 2278 2214
3580 2229 2350 2322
3581 2098 2323 2358
3582 2166 2352 2354
3583 2238 2409 2352
3584 2024 2150 2285
3585 2216 2268 2231
3586 2133 2239 2246
3587 2249 2338 2280
3588 2242 2315 2261
3589 2215 2264 2223
3590 2182 2221 2218
3591 2183 2262 2259
3592 2152 2311 2341
3593 2074 2288 2395
3594 2057 2296 2411
3595 2060 2226 2340
3596 2150 2317 2345
3597 2186 2416 2408
3598 2197 2500 2483
3599 2215 2665 2628
3600 2209 2625 2587
3601 2227 2605 2552
3602 2218 2600 2545
3603 2220 2558 2508
3604 2200 2459 2427
3605 2177 2329 2321
3606 2114 2132 2198
3607 2160 2169 2178
3608 2206 2256 2230
3609 2209 2281 2257
3610 2138 2217 2251
3611 1915 2114 2368
3612 1924 2234 2477
3613 2204 2447 2433
3614 2216 2596 2569
3615 2221 2757 2724
3616 2240 2854 2802
3617 1956 2599 2782
3618 2232 2698 2646
3619 2225 2532 2478
3620 2242 2270 2208
3621 2255 2155 2078
3622 2160 2076 2088
3623 2245 2222 2169
3624 2227 2385 2352
3625 2230 2512 2468
3626 2135 2414 2420
3627 2216 2433 2409
3628 2118 2452 2494
3629 2212 2576 2555
3630 1937 2407 2649
3631 2154 2420 2463
3632 2211 2413 2380
3633 2192 2310 2299
3634 2216 2332 2298
3635 2220 2287 2246
3636 2071 2141 2276
3637 1929 2123 2360
3638 2226 2355 2324
3639 2207 2355 2309
3640 2230 2328 2282
3641 2197 2382 2408
3642 2238 2621 2580
3643 2243 2758 2710
3644 2198 2932 2900
3645 2131 2843 2878
3646 2164 2583 2570
3647 2214 2216 2181
3648 2203 2230 2208
3649 2204 2361 2347
3650 2196 2364 2351
3651 2204 2309 2289
3652 2218 2331 2302
3653 2175 2299 2278
3654 2203 2398 2383
3655 2214 2493 2461
3656 2168 2431 2465
3657 2211 2441 2414
3658 2212 2453 2419
3659 2218 2494 2464
3660 2140 2495 2495
3661 2182 2562 2549
3662 2079 2336 2422
3663 2203 2383 2350
3664 2211 2361 2336
3665 2197 2369 2350
3666 2214 2427 2406
3667 1928 2352 2593
3668 1877 2302 2622
3669 2092 2453 2573
3670 2101 2464 2509
3671 2191 2467 2455
3672 2210 2381 2352
3673 2203 2304 2271
3674 2222 2262 2219
3675 2214 2330 2305
3676 2221 2395 2361
3677 2232 2464 2417
3678 2195 2471 2458
3679 2180 2502 2505
3680 2203 2542 2520
3681 2207 2504 2478
3682 2200 2580 2566
3683 2207 2562 2532
3684 2229 2537 2489
3685 2222 2592 2550
3686 2195 2507 2483
3687 2188 2429 2429
3688 2181 2594 2603
3689 2180 2650 2654
3690 2190 2850 2836
3691 2185 2785 2772
3692 2194 2514 2494
3693 2192 2221 2197
3694 2199 2180 2161
3695 2205 2198 2180
3696 2219 2315 2285
3697 2229 2398 2362
3698 2223 2381 2339
3699 2222 2318 2280
3700 2216 2333 2300
3701 2225 2449 2408
3702 2221 2498 2462
3703 2214 2517 2487
3704 2204 2475 2446
3705 2213 2456 2424
3706 2201 2364 2339
3707 2204 2309 2286
3708 2203 2370 2349
3709 2191 2472 2463
3710 2202 2539 2516
3711 2196 2657 2641
3712 2193 2621 2604
3713 2191 2452 2437
3714 2199 2417 2393
3715 2214 2412 2377
3716 2229 2418 2375
3717 2241 2530 2480
3718 2239 2623 2572
3719 2237 2614 2564
3720 2232 2587 2543
3721 2235 2529 2476
3722 2228 2460 2415
3723 2222 2499 2466
3724 2218 2431 2403
3725 2210 2399 2374
3726 2207 2394 2372
3727 2214 2407 2377
3728 2199 2416 2399
3729 2197 2362 2344
3730 2202 2364 2341
3731 2199 2400 2388
3732 2191 2347 2332
3733 2191 2308 2298
3734 2188 2420 2414
3735 2206 2489 2468
3736 2211 2625 2603
3737 2218 2731 2703
3738 2197 2838 2823
3739 2187 2941 2926
3740 2172 2967 2965
3741 2187 2799 2779
3742 2178 2597 2593
3743 2153 2508 2550
3744 2065 2344 2438
3745 2055 2150 2236
3746 2201 2132 2111
3747 1996 1982 2168
3748 2055 2077 2193
3749 2043 2092 2201
3750 1954 2055 2278
3751 2159 2325 2339
3752 1950 2160 2389
3753 1908 2261 2518
3754 1883 2314 2589
3755 1892 2384 2656
3756 1903 2487 2746
3757 1908 2467 2707
3758 1918 2292 2527
3759 1942 2204 2430
3760 2152 2474 2462
3761 2034 2348 2476
3762 2022 2322 2462
3763 2073 2370 2465
3764 2142 2381 2424
3765 2208 2498 2478
3766 2018 2389 2543
3767 1971 2370 2555
3768 2153 2540 2550
3769 2162 2452 2429
3770 2195 2188 2211
3771 1981 2007 2194
3772 1990 2109 2301
3773 2160 2422 2430
3774 2184 2504 2480
3775 1915 2192 2434
3776 1988 2277 2447
3777 2040 2487 2523
3778 2096 2472 2544
3779 2158 2621 2651
3780 2132 2680 2715
3781 2126 2638 2674
3782 2115 2623 2678
3783 2156 2625 2657
3784 2193 2620 2578
3785 2022 2333 2478
3786 2009 2279 2445
3787 2060 2279 2401
3788 2062 2148 2243
3789 2110 2152 2205
3790 2137 2236 2275
3791 2147 2271 2282
3792 2204 2395 2369
3793 2215 2497 2468
3794 2217 2643 2615
3795 2222 2838 2800
3796 2226 3001 2952
3797 2234 2860 2800
3798 2227 2698 2648
3799 2243 2617 2549
3800 2242 2551 2491
3801 2250 2512 2436
3802 2252 2468 2394
3803 2263 2551 2473
3804 2264 2562 2472
3805 2263 2510 2420
3806 2256 2457 2380
3807 2250 2480 2411
3808 2250 2421 2344
3809 2242 2472 2414
3810 2222 2534 2490
3811 2226 2501 2454
3812 2234 2487 2426
3813 2230 2478 2426
3814 2225 2530 2477
3815 2224 2538 2491
3816 2128 2573 2620
3817 2214 2734 2680
3818 2242 2811 2753
3819 2231 2749 2685
3820 2241 2677 2617
3821 2229 2651 2600
3822 2253 2654 2579
3823 2272 2589 2504
3824 2282 2537 2430
3825 2269 2516 2432
3826 2250 2477 2405
3827 2234 2425 2372
3828 2236 2415 2365
3829 2241 2516 2459
3830 2250 2640 2569
3831 2254 2600 2531
3832 2247 2539 2472
3833 2220 2420 2423
3834 2164 2479 2513
3835 2244 2618 2557
3836 2233 2595 2536
3837 2256 2593 2523
3838 2262 2592 2511
3839 2267 2555 2469
3840 2185 2532 2491
3841 2251 2570 2510
3842 2232 2622 2576
3843 2139 2561 2621
3844 2198 2686 2652
3845 2234 2742 2688
3846 2077 2608 2599
3847 2213 2514 2477
3848 2132 2375 2429
3849 2202 2346 2323
3850 2211 2274 2242
3851 2225 2259 2227
3852 2112 2252 2341
3853 1984 2160 2386
3854 2149 2394 2460
3855 2170 2563 2568
3856 2215 2626 2587
3857 2208 2616 2577
3858 2226 2635 2590
3859 2218 2643 2602
3860 2217 2577 2535
3861 2215 2547 2504
3862 2225 2517 2471
3863 2229 2603 2554
3864 2228 2634 2590
3865 2230 2602 2556
3866 2220 2556 2516
3867 2208 2506 2481
3868 2212 2382 2338
3869 2212 2260 2222
3870 2204 2284 2259
3871 2195 2316 2304
3872 2195 2449 2436
3873 2203 2495 2479
3874 2213 2479 2452
3875 2213 2648 2622
3876 2218 2883 2843
3877 2222 2807 2753
3878 2235 2814 2765
3879 2238 2838 2783
3880 2220 2755 2714
3881 2227 2561 2508
3882 2216 2381 2341
3883 2216 2250 2212
3884 2211 2176 2143
3885 2230 2212 2169
3886 2205 2310 2291
3887 2208 2392 2372
3888 2211 2473 2435
3889 2207 2451 2433
3890 2205 2541 2527
3891 2196 2541 2519
3892 2192 2489 2477
3893 2189 2498 2487
3894 2198 2568 2557
3895 2210 2575 2543
3896 2227 2511 2465
3897 2229 2467 2421
3898 2221 2353 2315
3899 2216 2381 2347
3900 2209 2498 2468
3901 2226 2765 2725
3902 2220 2983 2946
3903 2216 2923 2882
3904 2202 2761 2721
3905 2200 2611 2574
3906 2216 2604 2567
3907 2222 2517 2474
3908 2223 2326 2282
3909 2206 2213 2181
3910 2208 2225 2190
3911 2217 2235 2192
3912 2225 2270 2217
3913 2223 2321 2278
3914 2239 2400 2342
3915 2270 2453 2366
3916 2279 2476 2384
3917 2290 2511 2404
3918 2279 2530 2437
3919 2285 2557 2460
3920 2296 2606 2491
3921 2305 2675 2554
3922 2312 2699 2572
3923 2333 2748 2597
3924 2328 2744 2598
3925 2307 2716 2591
3926 2284 2694 2594
3927 2077 2492 2563
3928 2281 2663 2560
3929 2279 2655 2558
3930 2288 2728 2617
3931 2279 2763 2662
3932 2297 2821 2705
3933 2196 2788 2729
3934 2313 2817 2683
3935 2337 2795 2641
3936 2351 2940 2771
3937 2239 2871 2774
3938 2347 2956 2790
3939 2306 2951 2807
3940 2236 2811 2785
3941 2329 2915 2777
3942 2334 2888 2731
3943 2353 2876 2706
3944 2343 2860 2697
3945 2336 2833 2681
3946 2324 2740 2599
3947 2294 2698 2566
3948 2079 2456 2539
3949 2256 2599 2503
3950 2151 2527 2540
3951 2106 2443 2506
3952 2205 2436 2441
3953 2006 2297 2450
3954 1724 2057 2528
3955 1280 1727 2649
3956 1435 2010 2700
3957 1036 1710 2847
3958 1206 2006 2949
3959 1670 2552 2965
3960 1518 2024 2692
3961 1860 2086 2442
3962 1089 1297 2406
3963 732 1004 2407
3964 925 1172 2430
3965 698 968 2461
3966 409 892 2654
3967 201 765 2713
3968 335 753 2617
3969 0 0 2590
3970 0 49 2659
3971 451 763 2475
3972 794 1013 2357
3973 210 399 2401
3974 2008 2347 2531
3975 1349 2341 2531
3976 2173 2481 2479
3977 2180 2376 2373
3978 2182 2315 2299
3979 2206 2358 2328
3980 2204 2483 2461
3981 2197 2558 2568
3982 1677 2066 2592
3983 1240 1663 2608
3984 1069 1428 2525
3985 2147 2345 2352
3986 2196 2327 2313
3987 2203 2553 2543
3988 2205 2626 2615
3989 1058 1382 2553
3990 0 0 2544
3991 0 0 2468
3992 0 0 2433
3993 0 0 2389
3994 0 0 2318
3995 0 0 2348
3996 0 0 2402
3997 0 0 2488
3998 0 0 2512
3999 0 0 2558
4000 0 0 2565
4001 2056 2412 2523
4002 2143 2477 2499
4003 2196 2531 2510
4004 2223 2523 2473
4005 2235 2451 2390
4006 2240 2421 2365
4007 2247 2420 2355
4008 2257 2434 2363
4009 2253 2528 2460
4010 2250 2646 2584
4011 2257 2714 2639
4012 2268 2702 2622
4013 2261 2717 2641
4014 2260 2703 2626
4015 2268 2657 2571
4016 2291 2663 2547
4017 2293 2630 2514
4018 2296 2679 2566
4019 2301 2730 2608
4020 2300 2738 2626
4021 2305 2716 2587
4022 2305 2646 2517
4023 2326 2647 2510
4024 2320 2623 2486
4025 2319 2604 2472
4026 2308 2538 2412
4027 2310 2527 2396
4028 2308 2512 2383
4029 2302 2522 2400
4030 2297 2516 2402
4031 2299 2561 2443
4032 2308 2589 2461
4033 2296 2623 2506
4034 2292 2630 2517
4035 2298 2656 2542
4036 2313 2714 2587
4037 1492 1866 2545
4038 1448 1949 2667
4039 2280 2919 2837
4040 2277 2955 2853
4041 1718 2263 2702
4042 1561 1980 2581
4043 1750 2076 2489
4044 1671 1965 2470
4045 2295 2629 2512
4046 2102 2305 2424
4047 1874 2041 2385
4048 2291 2494 2401
4049 2286 2547 2421
4050 2323 2607 2458
4051 2329 2517 2365
4052 2339 2485 2329
4053 2324 2495 2359
4054 1645 2018 2573
4055 1579 1980 2562
4056 1639 2122 2615
4057 1718 2231 2677
4058 1578 2080 2683
4059 1329 1816 2639
4060 1373 1768 2557
4061 1555 1949 2553
4062 1285 1675 2561
4063 1488 1842 2509
4064 1782 2066 2454
4065 1513 1789 2453
4066 1571 1784 2379
4067 1454 1617 2340
4068 1289 1505 2377
4069 1286 1527 2423
4070 1332 1642 2472
4071 1130 1390 2411
4072 956 1222 2420
4073 722 997 2454
4074 701 1071 2540
4075 935 1348 2572
4076 799 1209 2566
4077 1384 1765 2540
4078 2230 2608 2540
4079 1693 2102 2560
4080 2084 2446 2565
4081 2330 2642 2500
4082 1979 2231 2453
4083 2171 2491 2497
4084 2022 2319 2482
4085 2187 2519 2464
4086 1923 2195 2423
4087 1669 1906 2415
4088 1373 1615 2434
4089 1103 1263 2355
4090 959 1159 2343
4091 1825 2039 2390
4092 1845 2122 2454
4093 1611 1918 2484
4094 2078 2334 2476
4095 2031 2369 2483
4096 2356 2714 2524
4097 2360 2765 2578
4098 2359 2870 2681
4099 2380 2913 2704
4100 2368 2883 2679
4101 2375 2938 2737
4102 2366 2957 2751
4103 2379 2946 2732
4104 2387 2859 2632
4105 2380 2731 2517
4106 2370 2667 2459
4107 2350 2576 2394
4108 2345 2602 2427
4109 2342 2610 2437
4110 2345 2537 2364
4111 2344 2497 2324
4112 2346 2592 2421
4113 2344 2669 2497
4114 2354 2704 2516
4115 2361 2697 2505
4116 2374 2767 2566
4117 2396 2809 2578
4118 2422 2845 2586
4119 2427 2785 2523
4120 2417 2713 2458
4121 2409 2737 2495
4122 2393 2852 2627
4123 2402 2853 2616
4124 2398 2867 2632
4125 2402 2929 2694
4126 2392 2802 2569
4127 2391 2638 2410
4128 2381 2572 2356
4129 2392 2544 2327
4130 2399 2553 2324
4131 2398 2544 2319
4132 2399 2576 2349
4133 2390 2628 2409
4134 2383 2776 2568
4135 2392 2928 2704
4136 2413 2996 2723
4137 2427 2936 2676
4138 2429 2834 2570
4139 2440 2745 2477
4140 2442 2735 2468
4141 2460 2775 2487
4142 2452 2729 2446
4143 2455 2780 2486
4144 2448 2762 2484
4145 2425 2747 2487
4146 2412 2698 2454
4147 2411 2649 2409
4148 2412 2643 2395
4149 2398 2655 2425
4150 2393 2682 2451
4151 2377 2687 2488
4152 2370 2681 2470
4153 2295 2523 2409
4154 2387 2707 2492
4155 1898 2215 2508
4156 1900 2567 2533
4157 2067 2456 2608
4158 1408 1874 2640
4159 1188 1671 2648
4160 1292 1697 2589
4161 950 1355 2571
4162 1159 1573 2565
4163 1303 1787 2651
4164 1161 1669 2674
4165 1238 1681 2610
4166 977 1291 2485
4167 513 743 2400
4168 578 780 2385
4169 275 512 2333
4170 183 344 2368
4171 0 0 2376
4172 2330 2556 2396
4173 1344 1541 2410
4174 2207 2397 2433
4175 2389 2714 2502
4176 2292 2708 2596
4177 1895 2429 2683
4178 1413 1963 2719
4179 2273 2875 2682
4180 1816 2291 2676
4181 1160 1588 2612
4182 604 973 2566
4183 1977 2443 2525
4184 2438 2704 2439
4185 2435 2671 2412
4186 2299 2499 2442
4187 2417 2674 2432
4188 2432 2716 2458
4189 2048 2294 2423
4190 1864 2118 2419
4191 1843 2158 2483
4192 2043 2399 2557
4193 2252 2618 2553
4194 2292 2630 2509
4195 2338 2672 2500
4196 1950 2354 2549
4197 1353 1758 2566
4198 1852 2237 2544
4199 2195 2541 2510
4200 2275 2635 2522
4201 2276 2641 2539
4202 2125 2454 2484
4203 2444 2715 2450
4204 1789 2053 2438
4205 2312 2598 2425
4206 2425 2690 2434
4207 2433 2672 2419
4208 2450 2678 2414
4209 2449 2714 2451
4210 2451 2791 2521
4211 2450 2780 2513
4212 2446 2721 2454
4213 2361 2597 2362
4214 2442 2595 2335
4215 2378 2527 2351
4216 2455 2645 2374
4217 2196 2393 2397
4218 2051 2312 2404
4219 2128 2414 2443
4220 2237 2530 2449
4221 2224 2548 2463
4222 2359 2759 2567
4223 2446 2967 2697
4224 2420 2928 2673
4225 2425 2765 2501
4226 2421 2702 2446
4227 2430 2708 2454
4228 2418 2657 2406
4229 2420 2621 2381
4230 2398 2647 2424
4231 2412 2645 2407
4232 2168 2363 2353
4233 2243 2340 2309
4234 2089 2193 2298
4235 2389 2525 2312
4236 2415 2643 2403
4237 2435 2702 2447
4238 2065 2315 2431
4239 2047 2354 2445
4240 2124 2411 2439
4241 2140 2461 2457
4242 2221 2504 2445
4243 1828 2191 2449
4244 2248 2468 2422
4245 1867 2102 2393
4246 1815 2091 2364
4247 2326 2562 2345
4248 2077 2220 2319
4249 1805 1951 2323
4250 1600 1824 2383
4251 1655 1924 2444
4252 2099 2450 2502
4253 1774 2180 2566
4254 1792 2260 2625
4255 1955 2375 2567
4256 1984 2358 2523
4257 2078 2392 2476
4258 2151 2347 2354
4259 2203 2367 2341
4260 2183 2445 2431
4261 2167 2418 2408
4262 2287 2505 2388
4263 2103 2318 2377
4264 2091 2274 2343
4265 2078 2222 2308
4266 2059 2122 2227
4267 2027 2038 2164
4268 2049 2053 2162
4269 2034 2167 2305
4270 2035 2301 2423
4271 2157 2412 2405
4272 2184 2379 2364
4273 2190 2373 2345
4274 2096 2332 2397
4275 2063 2355 2458
4276 2061 2434 2539
4277 2073 2462 2546
4278 2040 2386 2489
4279 2048 2298 2412
4280 2028 2319 2451
4281 2057 2391 2502
4282 2051 2420 2530
4283 2087 2493 2564
4284 2066 2405 2505
4285 2036 2311 2432
4286 2041 2283 2400
4287 2017 2259 2398
4288 2009 2281 2425
4289 1999 2251 2410
4290 1976 2109 2298
4291 1931 2019 2257
4292 1940 2088 2311
4293 1942 2045 2274
4294 1890 1991 2257
4295 1884 1966 2253
4296 1863 2067 2365
4297 1931 2180 2400
4298 2014 2215 2362
4299 2053 2275 2386
4300 2094 2326 2395
4301 2064 2442 2557
4302 2058 2573 2684
4303 2090 2700 2791
4304 2080 2726 2805
4305 2069 2544 2634
4306 2042 2309 2414
4307 2012 2120 2270
4308 1970 1889 2077
4309 1945 1786 2007
4310 1986 1883 2067
4311 1967 1915 2112
4312 2130 2173 2211
4313 2220 2313 2258
4314 2219 2374 2319
4315 2257 2444 2350
4316 2266 2508 2415
4317 2281 2564 2447
4318 2320 2642 2496
4319 2294 2707 2573
4320 2284 2664 2541
4321 2303 2648 2514
4322 2288 2568 2441
4323 2303 2514 2376
4324 2300 2483 2347
4325 2287 2428 2302
4326 2257 2347 2258
4327 2226 2272 2214
4328 2217 2274 2225
4329 2224 2323 2257
4330 2239 2345 2273
4331 2232 2380 2315
4332 2214 2406 2355
4333 2208 2474 2434
4334 2198 2509 2474
4335 2210 2547 2504
4336 2217 2574 2516
4337 2232 2548 2480
4338 2237 2487 2422
4339 2252 2499 2406
4340 2264 2463 2361
4341 2264 2452 2350
4342 2281 2432 2303
4343 2286 2404 2274
4344 2279 2381 2265
4345 2248 2375 2299
4346 2214 2295 2253
4347 2225 2391 2336
4348 2246 2386 2308
4349 2237 2336 2258
4350 2234 2347 2285
4351 2237 2400 2331
4352 2239 2467 2383
4353 2229 2584 2545
4354 2226 2742 2684
4355 2248 2734 2651
4356 2269 2700 2602
4357 2270 2733 2626
4358 2054 2366 2466
4359 2030 2372 2521
4360 1962 2464 2636
4361 2279 2718 2630
4362 2340 2653 2480
4363 2417 2503 2246
4364 2472 2469 2164
4365 2460 2428 2140
4366 2442 2447 2168
4367 2274 2321 2186
4368 2452 2463 2177
4369 2379 2407 2194
4370 2458 2506 2210
4371 2463 2498 2200
4372 2488 2534 2217
4373 2487 2539 2231
4374 2477 2602 2300
4375 2487 2707 2403
4376 2481 2762 2462
4377 2486 2772 2461
4378 2484 2763 2452
4379 2493 2769 2455
4380 2491 2777 2459
4381 2489 2769 2457
4382 2480 2708 2402
4383 2485 2746 2449
4384 2479 2784 2484
4385 2469 2733 2438
4386 2472 2616 2320
4387 2466 2502 2212
4388 2467 2504 2212
4389 2463 2484 2195
4390 2467 2511 2215
4391 2466 2534 2248
4392 2472 2545 2251
4393 2463 2544 2257
4394 2456 2554 2277
4395 2461 2614 2334
4396 2476 2674 2373
4397 2494 2728 2416
4398 2486 2805 2500
4399 2486 2830 2520
4400 2471 2787 2496
4401 2481 2785 2480
4402 2486 2758 2454
4403 2489 2714 2399
4404 2481 2546 2230
4405 2459 2465 2182
4406 2468 2463 2172
4407 2469 2577 2294
4408 2469 2600 2308
4409 2470 2584 2295
4410 2474 2600 2309
4411 2468 2576 2283
4412 2469 2628 2340
4413 2471 2671 2380
4414 2466 2736 2451
4415 2463 2760 2482
4416 2473 2826 2530
4417 2484 2835 2534
4418 2487 2767 2453
4419 2494 2846 2525
4420 2481 2806 2501
4421 2478 2698 2399
4422 2473 2651 2361
4423 2464 2677 2400
4424 2459 2754 2471
4425 2412 2733 2487
4426 2392 2703 2492
4427 2132 2412 2463
4428 2297 2452 2319
4429 2443 2429 2148
4430 2143 2623 2667
4431 2183 2525 2493
4432 2233 2559 2500
4433 2251 2505 2428
4434 2281 2518 2419
4435 2318 2626 2483
4436 2357 2695 2516
4437 2380 2684 2477
4438 2397 2642 2421
4439 2404 2670 2441
4440 2351 2637 2455
4441 2424 2717 2466
4442 2381 2659 2444
4443 2437 2726 2457
4444 2438 2679 2415
4445 2431 2637 2376
4446 2433 2624 2366
4447 2429 2644 2386
4448 2426 2599 2347
4449 2421 2547 2313
4450 2421 2576 2325
4451 2416 2379 2125
4452 2424 2296 2053
4453 2425 2396 2147
4454 2413 2571 2340
4455 2435 2747 2496
4456 2427 2863 2608
4457 2428 2875 2609
4458 2433 2782 2523
4459 2438 2728 2457
4460 2444 2692 2427
4461 2444 2712 2435
4462 2446 2635 2351
4463 2412 2560 2317
4464 2420 2659 2414
4465 2403 2645 2406
4466 2441 2605 2334
4467 2435 2543 2298
4468 2408 2777 2532
4469 2283 2683 2575
4470 2285 2553 2444
4471 2426 2559 2309
4472 2442 2440 2174
4473 2436 2350 2073
4474 2442 2346 2081
4475 2442 2440 2171
4476 2465 2557 2274
4477 2477 2658 2357
4478 2470 2701 2404
4479 2467 2705 2418
4480 2387 2660 2414
4481 2460 2691 2412
4482 2424 2658 2402
4483 2437 2668 2410
4484 2462 2705 2434
4485 2418 2631 2370
4486 2175 2311 2309
4487 1633 1761 2302
4488 2393 2473 2257
4489 2057 2089 2225
4490 1897 2290 2174
4491 2197 2285 2168
4492 2357 2399 2284
4493 1978 2119 2349
4494 2156 2462 2370
4495 2177 2483 2388
4496 2375 2624 2410
4497 2441 2718 2444
4498 2462 2740 2450
4499 2471 2755 2459
4500 2410 2598 2419
4501 1820 2044 2389
4502 2145 2258 2327
4503 1822 1948 2289
4504 2008 2109 2258
4505 2292 2380 2238
4506 2369 2443 2238
4507 2383 2395 2166
4508 2387 2365 2146
4509 2282 2288 2168
4510 2082 2148 2230
4511 1830 1921 2267
4512 2413 2499 2264
4513 2156 2410 2259
4514 2186 2333 2337
4515 1744 2001 2416
4516 1417 1808 2551
4517 1533 1961 2566
4518 1381 1743 2525
4519 1348 1672 2478
4520 1631 1924 2434
4521 1585 1826 2403
4522 1501 1647 2310
4523 1471 1572 2266
4524 2386 2472 2238
4525 2441 2542 2276
4526 2426 2485 2222
4527 2417 2446 2199
4528 1538 1571 2220
4529 1320 1405 2282
4530 1166 1479 2459
4531 1505 1834 2487
4532 1364 1566 2371
4533 915 1031 2294
4534 972 1159 2321
4535 1170 1337 2346
4536 1116 1210 2261
4537 953 1056 2268
4538 1128 1274 2293
4539 1012 1212 2366
4540 988 1250 2411
4541 1105 1391 2423
4542 1474 1632 2328
4543 1575 1711 2299
4544 1472 1568 2248
4545 1404 1539 2301
4546 1568 1656 2274
4547 1094 1120 2191
4548 1122 1194 2240
4549 2340 2485 2307
4550 1313 1461 2338
4551 1047 1102 2227
4552 1222 1152 2102
4553 2392 2184 1953
4554 1386 1231 1997
4555 1437 1381 2099
4556 1056 1090 2198
4557 1159 1426 2433
4558 1161 1562 2571
4559 1534 1926 2530
4560 1235 1535 2488
4561 1156 1449 2435
4562 915 1104 2347
4563 1399 1941 2242
4564 1448 1433 2182
4565 1626 1628 2158
4566 1976 2040 2199
4567 2326 2381 2229
4568 2403 2440 2195
4569 2400 2340 2099
4570 2422 2360 2092
4571 2415 2360 2097
4572 2480 2448 2137
4573 2359 2396 2189
4574 2467 2504 2216
4575 2145 2235 2249
4576 2314 2458 2299
4577 2488 2687 2375
4578 2488 2724 2404
4579 2512 2784 2444
4580 2517 2704 2358
4581 2524 2623 2275
4582 2536 2615 2252
4583 2531 2603 2252
4584 2509 2625 2297
4585 2493 2599 2283
4586 2479 2556 2253
4587 2471 2477 2177
4588 2474 2417 2118
4589 2479 2410 2105
4590 2488 2495 2192
4591 2508 2509 2175
4592 2514 2516 2175
4593 2510 2521 2187
4594 2498 2575 2247
4595 2517 2603 2263
4596 2534 2639 2284
4597 2524 2656 2307
4598 2527 2677 2321
4599 2534 2692 2332
4600 2519 2652 2311
4601 2532 2620 2265
4602 2529 2625 2273
4603 2531 2637 2282
4604 2536 2582 2226
4605 2513 2515 2168
4606 2508 2489 2152
4607 2512 2486 2151
4608 2517 2485 2147
4609 2502 2538 2221
4610 2513 2583 2243
4611 2507 2563 2229
4612 2513 2587 2249
4613 2506 2558 2231
4614 2496 2478 2159
4615 2495 2472 2154
4616 2514 2620 2288
4617 2534 2720 2362
4618 2534 2688 2335
4619 2523 2666 2313
4620 2504 2599 2272
4621 2498 2563 2241
4622 2495 2532 2201
4623 2510 2539 2191
4624 2525 2455 2097
4625 2508 2388 2045
4626 2507 2388 2046
4627 2504 2390 2065
4628 2497 2387 2051
4629 2484 2360 2040
4630 2486 2496 2183
4631 2497 2564 2249
4632 2498 2585 2263
4633 2499 2557 2246
4634 2500 2586 2263
4635 2510 2642 2309
4636 2525 2712 2359
4637 2538 2759 2403
4638 2536 2873 2523
4639 2544 2928 2554
4640 2535 2885 2532
4641 2530 2805 2455
4642 2520 2748 2405
4643 2531 2773 2418
4644 2531 2596 2229
4645 2522 2422 2080
4646 2508 2421 2080
4647 2503 2472 2136
4648 2524 2465 2105
4649 2519 2391 2037
4650 2525 2462 2122
4651 2513 2519 2176
4652 2520 2500 2162
4653 2512 2522 2186
4654 2506 2546 2216
4655 2517 2552 2212
4656 2515 2502 2155
4657 2524 2453 2100
4658 2521 2482 2137
4659 2541 2635 2277
4660 2542 2706 2342
4661 2555 2670 2288
4662 2564 2606 2220
4663 2563 2590 2203
4664 2553 2623 2249
4665 2537 2590 2224
4666 2537 2548 2193
4667 2509 2570 2231
4668 2525 2588 2236
4669 2517 2528 2181
4670 2502 2499 2164
4671 2468 2470 2158
4672 2447 2495 2177
4673 2474 2452 2128
4674 2510 2459 2111
4675 2493 2405 2067
4676 2524 2477 2116
4677 2490 2491 2168
4678 2470 2491 2189
4679 2533 2591 2226
4680 2549 2635 2260
4681 2547 2654 2277
4682 2555 2697 2317
4683 2561 2639 2248
4684 2553 2582 2196
4685 2550 2554 2181
4686 2527 2499 2137
4687 2502 2422 2090
4688 2513 2432 2086
4689 2517 2468 2121
4690 2536 2497 2130
4691 2523 2443 2086
4692 2523 2480 2130
4693 2520 2469 2124
4694 2522 2476 2128
4695 2522 2543 2197
4696 2529 2545 2195
4697 2531 2595 2243
4698 2527 2591 2231
4699 2538 2591 2234
4700 2527 2569 2214
4701 2537 2623 2266
4702 2521 2637 2299
4703 2521 2694 2351
4704 2519 2686 2341
4705 2507 2599 2266
4706 2499 2521 2193
4707 2489 2393 2077
4708 2487 2285 1966
4709 2482 2291 1974
4710 2481 2418 2112
4711 2488 2429 2115
4712 2504 2445 2116
4713 2499 2476 2151
4714 2496 2518 2201
4715 2491 2591 2279
4716 2489 2606 2297
4717 2491 2569 2245
4718 2497 2504 2176
4719 2514 2395 2049
4720 2496 2362 2045
4721 2486 2444 2129
4722 2485 2458 2145
4723 2496 2457 2126
4724 2498 2456 2120
4725 2498 2440 2114
4726 2494 2436 2102
4727 2481 2370 2054
4728 2479 2361 2043
4729 2460 2300 1980
4730 2485 2283 1965
4731 2492 2282 1955
4732 2494 2316 1989
4733 2487 2345 2031
4734 2482 2385 2074
4735 2474 2422 2124
4736 2488 2478 2160
4737 2523 2507 2159
4738 2517 2494 2149
4739 2516 2454 2098
4740 2505 2408 2077
4741 2508 2420 2088
4742 2512 2366 2023
4743 2504 2429 2099
4744 2505 2554 2230
4745 2493 2585 2263
4746 2473 2494 2195
4747 2463 2348 2052
4748 2470 2273 1962
4749 2465 2263 1959
4750 2465 2340 2050
4751 2459 2345 2050
4752 2457 2345 2054
4753 2447 2338 2063
4754 2453 2358 2074
4755 2467 2406 2105
4756 2473 2438 2148
4757 2486 2483 2163
4758 2484 2422 2116
4759 2482 2433 2122
4760 2490 2425 2118
4761 2483 2508 2201
4762 2502 2514 2188
4763 2495 2586 2262
4764 2513 2557 2227
4765 2508 2513 2180
4766 2510 2459 2110
4767 2500 2382 2045
4768 2492 2392 2040
4769 2513 2348 1992
4770 2525 2324 1960
4771 2530 2283 1918
4772 2554 2320 1929
4773 2565 2302 1897
4774 2572 2321 1915
4775 2575 2442 2037
4776 2579 2592 2190
4777 2596 2697 2277
4778 2593 2699 2277
4779 2607 2768 2347
4780 2589 2815 2403
4781 2601 2824 2386
4782 2624 2760 2320
4783 2633 2745 2286
4784 2631 2785 2330
4785 2616 2798 2353
4786 2605 2727 2295
4787 2549 2612 2234
4788 2272 2325 2209
4789 2629 2677 2220
4790 2298 2366 2256
4791 2578 2699 2269
4792 2611 2703 2275
4793 2522 2627 2256
4794 2018 2081 2255
4795 2399 2424 2247
4796 2646 2710 2225
4797 2674 2730 2226
4798 2300 2327 2232
4799 2649 2758 2291
4800 2634 2772 2325
4801 2628 2744 2297
4802 2629 2710 2256
4803 2601 2597 2164
4804 2580 2495 2081
4805 2550 2382 1991
4806 2521 2225 1860
4807 2497 2200 1873
4808 2467 2196 1893
4809 2446 2238 1960
4810 2471 2221 1926
4811 2461 2209 1920
4812 2448 2294 2024
4813 2464 2337 2035
4814 2470 2297 1995
4815 2488 2263 1940
4816 2484 2359 2029
4817 2498 2328 1992
4818 2496 2301 1975
4819 2495 2351 2028
4820 2483 2367 2052
4821 2485 2436 2122
4822 2487 2515 2205
4823 2493 2522 2198
4824 2496 2450 2124
4825 2478 2403 2095
4826 2460 2402 2116
4827 2455 2360 2072
4828 2459 2330 2037
4829 2465 2267 1968
4830 2471 2227 1922
4831 2474 2169 1867
4832 2478 2190 1876
4833 2473 2165 1861
4834 2468 2212 1907
4835 2487 2285 1963
4836 2496 2312 1984
4837 2500 2314 1985
4838 2486 2317 1993
4839 2488 2324 2009
4840 2483 2317 2003
4841 2482 2330 2013
4842 2474 2317 2002
4843 2484 2312 1994
4844 2492 2317 1991
4845 2465 2265 1969
4846 2472 2229 1924
4847 2451 2217 1927
4848 2452 2243 1952
4849 2440 2197 1927
4850 2463 2218 1923
4851 2458 2245 1963
4852 2462 2277 1977
4853 2462 2244 1942
4854 2468 2250 1945
4855 2474 2260 1955
4856 2402 2174 1988
4857 2426 2252 2004
4858 2449 2271 1980
4859 2486 2315 1991
4860 2487 2296 1981
4861 2478 2338 2025
4862 2473 2313 2010
4863 2472 2330 2030
4864 2482 2293 1980
4865 2465 2223 1925
4866 2459 2187 1904
4867 2438 2145 1871
4868 2450 2191 1911
4869 2431 2206 1940
4870 2453 2232 1945
4871 2464 2203 1903
4872 2466 2231 1936
4873 2456 2216 1923
4874 2450 2201 1915
4875 2463 2213 1912
4876 2431 2220 1938
4877 2472 2328 2025
4878 2464 2481 2195
4879 2455 2551 2261
4880 2464 2498 2209
4881 2454 2474 2191
4882 2431 2322 2031
4883 2362 2076 1885
4884 2442 2113 1845
4885 2473 2190 1883
4886 2455 2249 1958
4887 2301 2178 2015
4888 2431 2375 2103
4889 2453 2361 2075
4890 2460 2266 1968
4891 2433 2152 1881
4892 2441 2120 1844
4893 2437 2084 1818
4894 2348 1990 1862
4895 2252 1979 1885
4896 2424 2167 1907
4897 2398 2182 1924
4898 2452 2263 1944
4899 2477 2286 1978
4900 2459 2246 1957
4901 2449 2255 1961
4902 2424 2200 1927
4903 2443 2240 1941
4904 2406 2208 1938
4905 2471 2220 1913
4906 2451 2193 1907
4907 2438 2170 1893
4908 2460 2164 1872
4909 2449 2128 1854
4910 2435 2127 1854
4911 2423 2147 1890
4912 2440 2184 1916
4913 2441 2162 1883
4914 2435 2173 1909
4915 2451 2227 1935
4916 2465 2278 1982
4917 2485 2343 2017
4918 2481 2352 2041
4919 2480 2370 2054
4920 2469 2327 2027
4921 2465 2267 1969
4922 2460 2222 1930
4923 2472 2216 1907
4924 2480 2233 1924
4925 2465 2203 1912
4926 2469 2141 1837
4927 2461 2104 1822
4928 2472 2118 1816
4929 2475 2046 1740
4930 2477 2084 1791
4931 2470 2087 1787
4932 2467 2159 1863
4933 2412 2192 1909
4934 2456 2210 1915
4935 2470 2248 1940
4936 2459 2284 1981
4937 2484 2372 2054
4938 2487 2353 2036
4939 2486 2364 2048
4940 2484 2332 2028
4941 2466 2353 2062
4942 2426 2261 2041
4943 2453 2315 2038
4944 2436 2315 2008
4945 2477 2259 1953
4946 2478 2204 1888
4947 2446 2127 1837
4948 2465 2166 1873
4949 2382 2092 1866
4950 2460 2182 1896
4951 2466 2205 1910
4952 2457 2217 1931
4953 2464 2231 1926
4954 2455 2229 1940
4955 2474 2286 1982
4956 2477 2295 1988
4957 2481 2316 2003
4958 2463 2313 2018
4959 2491 2350 2027
4960 2494 2302 1973
4961 2491 2276 1953
4962 2497 2268 1944
4963 2491 2319 1994
4964 2487 2318 1999
4965 2471 2295 1992
4966 2479 2301 1986
4967 2475 2225 1915
4968 2488 2187 1861
4969 2463 2086 1769
4970 2486 2105 1792
4971 2493 2236 1912
4972 2499 2407 2085
4973 2480 2499 2196
4974 2468 2454 2157
4975 2474 2387 2079
4976 2478 2312 1995
4977 2495 2354 2032
4978 2505 2412 2076
4979 2507 2408 2067
4980 2481 2299 1990
4981 2485 2251 1943
4982 2476 2166 1852
4983 2501 2132 1812
4984 2516 2183 1838
4985 2500 2219 1887
4986 2478 2167 1851
4987 2476 2137 1825
4988 2479 2166 1857
4989 2460 2215 1924
4990 2467 2293 2001
4991 2464 2296 1999
4992 2470 2271 1983
4993 2465 2288 1989
4994 2458 2311 2027
4995 2469 2343 2037
4996 2477 2267 1968
4997 2482 2261 1944
4998 2504 2264 1941
4999 2513 2320 1963
5000 2523 2324 1975
5001 2504 2328 1991
5002 2477 2307 1997
5003 2479 2306 1993
5004 2493 2270 1939
5005 2489 2243 1913
5006 2472 2203 1889
5007 2471 2168 1861
5008 2483 2172 1859
5009 2463 2174 1888
5010 2462 2179 1887
5011 2474 2182 1871
5012 2477 2167 1854
5013 2462 2142 1848
5014 2481 2173 1870
5015 2493 2238 1916
5016 2500 2265 1935
5017 2524 2293 1938
5018 2536 2306 1946
5019 2522 2378 2028
5020 2524 2349 1993
5021 2506 2324 1993
5022 2489 2327 2006
5023 2498 2343 2022
5024 2497 2318 1987
5025 2497 2261 1926
5026 2474 2217 1907
5027 2447 2169 1899
5028 2456 2154 1870
5029 2456 2136 1854
5030 2459 2164 1878
5031 2461 2183 1893
5032 2466 2212 1915
5033 2487 2204 1885
5034 2468 2195 1900
5035 2477 2216 1908
5036 2480 2260 1951
5037 2495 2309 1984
5038 2495 2280 1955
5039 2482 2304 1991
5040 2481 2301 1987
5041 2487 2319 1989
5042 2442 2274 1971
5043 2465 2299 1963
5044 2485 2262 1948
5045 2487 2230 1917
5046 2490 2202 1884
5047 2483 2162 1848
5048 2490 2158 1842
5049 2472 2140 1841
5050 2490 2129 1805
5051 2490 2115 1793
5052 2489 2138 1818
5053 2490 2142 1823
5054 2472 2140 1848
5055 2484 2201 1889
5056 2471 2255 1955
5057 2468 2301 2001
5058 2403 2240 1981
5059 2481 2293 1978
5060 2466 2284 1987
5061 2436 2280 1981
5062 2453 2234 1958
5063 2458 2256 1971
5064 2471 2198 1896
5065 2467 2091 1791
5066 2457 2050 1767
5067 2436 2037 1780
5068 2430 2050 1791
5069 2424 2002 1757
5070 2432 2007 1747
5071 2431 1983 1731
5072 2420 2008 1763
5073 2433 2025 1754
5074 2434 2066 1812
5075 2437 2234 1978
5076 2520 1988 1629
5077 2506 2044 1703
5078 2480 2073 1774
5079 2469 2141 1847
5080 2447 2076 1794
5081 2437 1998 1741
5082 2422 1970 1722
5083 2447 2025 1749
5084 2462 2048 1754
5085 2456 2026 1738
5086 2445 2029 1761
5087 2443 2013 1746
5088 2432 1996 1739
5089 2456 1975 1695
5090 2456 1995 1717
5091 2450 1971 1701
5092 2437 1994 1734
5093 2433 1996 1738
5094 2438 2020 1756
5095 2454 2058 1775
5096 2460 2101 1816
5097 2455 2150 1872
5098 2457 2142 1859
5099 2463 2174 1888
5100 2459 2172 1883
5101 2464 2183 1902
5102 2453 2183 1910
5103 2463 2193 1894
5104 2455 2151 1867
5105 2439 2090 1811
5106 2468 2032 1735
5107 2469 1987 1693
5108 2460 1986 1704
5109 2439 1991 1719
5110 2448 2010 1739
5111 2442 1994 1722
5112 2447 2011 1731
5113 2423 1991 1742
5114 2422 2013 1768
5115 2437 2040 1786
5116 2431 2065 1808
5117 2455 2128 1846
5118 2473 2160 1864
5119 2464 2194 1902
5120 2459 2159 1877
5121 2468 2141 1842
5122 2482 2140 1832
5123 2481 2133 1824
5124 2487 2111 1801
5125 2471 2053 1750
5126 2476 1997 1692
5127 2448 1964 1696
5128 2448 1987 1716
5129 2439 1950 1695
5130 2441 1957 1690
5131 2436 1976 1723
5132 2424 2032 1778
5133 2424 2036 1785
5134 2417 2029 1784
5135 2415 2055 1808
5136 2417 2078 1834
5137 2435 2114 1853
5138 2438 2119 1856
5139 2452 2129 1854
5140 2462 2100 1812
5141 2459 2079 1788
5142 2454 2035 1752
5143 2468 2058 1760
5144 2482 2090 1788
5145 2470 2069 1774
5146 2471 2044 1754
5147 2453 1983 1709
5148 2449 1954 1685
5149 2441 1928 1666
5150 2439 1957 1697
5151 2448 1953 1684
5152 2469 1970 1679
5153 2459 1996 1719
5154 2447 2031 1762
5155 2458 2117 1835
5156 2460 2161 1876
5157 2476 2190 1888
5158 2471 2200 1898
5159 2479 2245 1933
5160 2490 2224 1907
5161 2483 2176 1871
5162 2469 2121 1825
5163 2474 2123 1818
5164 2470 2077 1779
5165 2461 1975 1689
5166 2460 1959 1675
5167 2436 1946 1692
5168 2435 1947 1699
5169 2443 1950 1689
5170 2469 1968 1675
5171 2504 1947 1654
5172 2447 1987 1716
5173 2421 2000 1758
5174 2421 2010 1769
5175 2442 2006 1740
5176 2424 2002 1759
5177 2434 2081 1824
5178 2448 2137 1867
5179 2457 2202 1920
5180 2459 2200 1914
5181 2463 2190 1897
5182 2467 2160 1870
5183 2469 2145 1840
5184 2488 2112 1797
5185 2447 2026 1752
5186 2451 1973 1697
5187 2445 1936 1661
5188 2448 1980 1706
5189 2443 2024 1755
5190 2463 2110 1816
5191 2468 2094 1798
5192 2449 2079 1811
5193 2447 2034 1759
5194 2430 1914 1658
5195 2423 1903 1662
5196 2417 1990 1748
5197 2439 2040 1776
5198 2428 2045 1799
5199 2433 2110 1851
5200 2447 2096 1825
5201 2456 2035 1754
5202 2446 2007 1741
5203 2466 2043 1750
5204 2473 2059 1756
5205 2458 2033 1750
5206 2441 2001 1727
5207 2435 1955 1690
5208 2454 1967 1692
5209 2464 1960 1673
5210 2463 1980 1693
5211 2460 1974 1688
5212 2459 1972 1689
5213 2453 1974 1697
5214 2450 1988 1719
5215 2464 2043 1771
5216 2454 2074 1787
5217 2477 2083 1781
5218 2480 2092 1791
5219 2477 2110 1811
5220 2457 2105 1820
5221 2449 2103 1862
5222 2465 2096 1806
5223 2467 2108 1819
5224 2464 2077 1784
5225 2463 2044 1765
5226 2453 2018 1741
5227 2453 1966 1684
5228 2463 1965 1681
5229 2460 1956 1667
5230 2462 1964 1681
5231 2462 1946 1667
5232 2443 1993 1724
5233 2445 2019 1744
5234 2456 2040 1757
5235 2468 2074 1774
5236 2479 2110 1806
5237 2491 2120 1800
5238 2492 2091 1779
5239 2475 2088 1784
5240 2459 2049 1765
5241 2474 2094 1800
5242 2477 2110 1814
5243 2497 2122 1805
5244 2492 2105 1795
5245 2453 2037 1758
5246 2457 1980 1706
5247 2448 1953 1691
5248 2445 1946 1680
5249 2447 1973 1709
5250 2445 2030 1768
5251 2448 1998 1729
5252 2470 2007 1717
5253 2464 2013 1730
5254 2451 2006 1736
5255 2461 2062 1781
5256 2454 2035 1758
5257 2442 2044 1779
5258 2428 2069 1816
5259 2422 2047 1804
5260 2432 2009 1758
5261 2436 2021 1768
5262 2433 2061 1812
5263 2447 2122 1852
5264 2450 2146 1874
5265 2423 2043 1798
5266 2428 1978 1724
5267 2417 1951 1714
5268 2415 1959 1730
5269 2425 1919 1676
5270 2443 1894 1636
5271 2457 1930 1654
5272 2499 1977 1660
5273 2496 2002 1687
5274 2507 2025 1708
5275 2482 2042 1740
5276 2450 2013 1749
5277 2431 2039 1786
5278 2413 2072 1831
5279 2421 2072 1829
5280 2415 2023 1790
5281 2435 2028 1772
5282 2443 2017 1757
5283 2468 2068 1775
5284 2477 2071 1761
5285 2478 1998 1695
5286 2471 1944 1653
5287 2453 1936 1665
5288 2459 1956 1668
5289 2456 1895 1613
5290 2450 1887 1623
5291 2442 1907 1647
5292 2436 1910 1659
5293 2433 1901 1648
5294 2435 1923 1671
5295 2439 1981 1724
5296 2452 2018 1747
5297 2469 2073 1781
5298 2478 2080 1779
5299 2464 2071 1784
5300 2463 2067 1787
5301 2457 2086 1803
5302 2460 2093 1801
5303 2464 2056 1762
5304 2462 2003 1718
5305 2459 1972 1685
5306 2443 1940 1681
5307 2409 1918 1694
5308 2405 1926 1698
5309 2402 1872 1649
5310 2403 1885 1668
5311 2402 1892 1672
5312 2402 1865 1643
5313 2400 1893 1668
5314 2378 1928 1729
5315 2389 1987 1781
5316 2398 2015 1800
5317 2445 2082 1807
5318 2462 2092 1810
5319 2466 2117 1830
5320 2461 2081 1800
5321 2451 2083 1816
5322 2421 2022 1781
5323 2437 2030 1768
5324 2445 2011 1746
5325 2448 1943 1670
5326 2453 1899 1622
5327 2458 1868 1589
5328 2440 1895 1630
5329 2447 1866 1603
5330 2412 1860 1572
5331 2461 1865 1582
5332 2451 1876 1598
5333 2449 1867 1592
5334 2443 1916 1654
5335 2439 1960 1697
5336 2432 1990 1742
5337 2448 2043 1784
5338 2461 2038 1757
5339 2492 2079 1763
5340 2507 2050 1720
5341 2499 2032 1712
5342 2423 1932 1704
5343 2470 2006 1710
5344 2474 2044 1756
5345 2471 2035 1749
5346 2486 2035 1721
5347 2481 1998 1696
5348 2476 1967 1668
5349 2447 1888 1626
5350 2437 1884 1629
5351 2430 1836 1602
5352 2376 1858 1653
5353 2283 1743 1672
5354 2415 1957 1723
5355 2412 2026 1776
5356 2357 2003 1794
5357 2448 2063 1797
5358 2356 2063 1814
5359 2443 2130 1858
5360 2449 2112 1850
5361 2443 2103 1842
5362 2417 2052 1808
5363 2427 2031 1786
5364 2440 1992 1722
5365 2438 1888 1627
5366 2447 1874 1618
5367 1739 1598 1608
5368 2147 1675 1606
5369 2404 1792 1568
5370 2388 1777 1571
5371 2345 1802 1604
5372 1800 1611 1618
5373 2302 1679 1627
5374 2422 1861 1655
5375 2308 1752 1697
5376 2021 1496 1707
5377 2484 2075 1769
5378 2483 2079 1773
5379 2482 2082 1775
5380 2427 1991 1733
5381 2287 1881 1727
5382 2416 1972 1741
5383 2432 1993 1738
5384 2448 1966 1706
5385 2443 1938 1671
5386 2460 1924 1642
5387 2373 1796 1560
5388 2098 1402 1537
5389 2245 1551 1544
5390 2212 1568 1605
5391 2384 1862 1623
5392 2443 1914 1658
5393 2189 1753 1673
5394 2412 1924 1697
5395 1915 1439 1742
5396 2432 2004 1763
5397 1838 1364 1753
5398 1849 1339 1739
5399 1524 1047 1763
5400 1018 536 1739
5401 2011 1533 1759
5402 2447 2034 1767
5403 2454 2015 1744
5404 2413 1970 1713
5405 2437 1956 1692
5406 2436 1905 1642
5407 2437 1829 1574
5408 2443 1840 1589
5409 2406 1834 1584
5410 2439 1845 1585
5411 2461 1836 1562
5412 2460 1880 1602
5413 2054 1500 1647
5414 2430 1862 1682
5415 2239 1775 1721
5416 2412 1975 1749
5417 2424 2041 1795
5418 2271 1963 1806
5419 2336 2013 1816
5420 2412 2008 1777
5421 2396 1984 1746
5422 2261 1770 1738
5423 2402 2030 1772
5424 2003 1599 1821
5425 2489 2072 1819
5426 2479 2106 1795
5427 2450 1968 1693
5428 2455 1909 1634
5429 2445 1827 1556
5430 2184 1508 1534
5431 2351 1697 1523
5432 2430 1810 1517
5433 2456 1812 1541
5434 2413 1849 1603
5435 2406 1900 1641
5436 2451 1953 1687
5437 2444 2014 1748
5438 2454 2014 1710
5439 2308 1936 1746
5440 2381 1915 1724
5441 2496 2008 1722
5442 2454 2041 1721
5443 2470 2031 1725
5444 2436 2007 1715
5445 2437 1946 1686
5446 2322 1854 1653
5447 2459 1868 1583
5448 2464 1843 1568
5449 2438 1824 1571
5450 2363 1805 1602
5451 1776 1276 1598
5452 2359 1855 1622
5453 2281 1750 1628
5454 2418 1930 1697
5455 2037 1618 1766
5456 2389 1914 1773
5457 2056 1584 1761
5458 2282 1734 1695
5459 2213 1891 1678
5460 2244 1707 1683
5461 2173 1650 1675
5462 2442 1947 1693
5463 1929 1405 1715
5464 1934 1645 1679
5465 2259 1833 1635
5466 2408 1879 1634
5467 2312 1700 1606
5468 2346 1708 1599
5469 2239 1546 1550
5470 2439 1815 1556
5471 2447 1845 1573
5472 2456 1865 1597
5473 2448 1886 1623
5474 2432 1890 1638
5475 2438 1950 1696
5476 2431 1971 1727
5477 2390 1974 1756
5478 2429 1987 1735
5479 2416 1962 1729
5480 2439 1963 1706
5481 2436 1949 1699
5482 2450 1938 1670
5483 2446 1962 1696
5484 2450 1955 1689
5485 2437 1896 1647
5486 2432 1860 1610
5487 2431 1839 1600
5488 2431 1846 1603
5489 2442 1808 1551
5490 2374 1714 1555
5491 2442 1868 1568
5492 2446 1830 1586
5493 2445 1878 1618
5494 2431 1881 1645
5495 2409 1899 1669
5496 2402 1950 1722
5497 2432 2006 1763
5498 2428 1994 1749
5499 2442 2002 1739
5500 2458 2023 1753
5501 2465 2069 1782
5502 2456 2039 1760
5503 2473 2013 1717
5504 2472 2011 1711
5505 2459 1977 1696
5506 2441 1932 1667
5507 2420 1886 1643
5508 2435 1839 1579
5509 2451 1797 1529
5510 2434 1821 1570
5511 2421 1809 1576
5512 2423 1854 1612
5513 2401 1893 1657
5514 2424 1929 1690
5515 2450 1982 1717
5516 2447 1996 1725
5517 2467 2023 1731
5518 2460 1978 1710
5519 2461 1984 1709
5520 2448 1980 1719
5521 2451 1991 1727
5522 2452 1983 1716
5523 2447 1974 1715
5524 2458 1978 1698
5525 2466 1928 1653
5526 2470 1926 1630
5527 2475 1895 1605
5528 2476 1907 1606
5529 2469 1910 1629
5530 2455 1939 1666
5531 2442 1924 1662
5532 2422 1935 1665
5533 2434 1898 1639
5534 2444 1896 1642
5535 2466 1934 1657
5536 2467 1978 1700
5537 2462 2054 1780
5538 2447 2092 1830
5539 2461 2123 1844
5540 2463 2101 1822
5541 2463 2080 1791
5542 2467 2055 1767
5543 2459 2003 1728
5544 2447 1973 1700
5545 2448 1925 1659
5546 2453 1912 1642
5547 2438 1862 1606
5548 2463 1898 1610
5549 2454 1850 1580
5550 2448 1835 1569
5551 2460 1863 1570
5552 2464 1901 1614
5553 2446 1923 1633
5554 2411 1885 1636
5555 2429 1922 1656
5556 2438 1944 1678
5557 2420 1976 1708
5558 2361 1916 1728
5559 2351 2003 1751
5560 2262 1747 1710
5561 2215 1716 1683
5562 1903 1657 1672
5563 2420 1932 1685
5564 2413 1938 1678
5565 2396 1882 1687
5566 2388 1931 1739
5567 2412 1928 1683
5568 2241 1676 1668
5569 2155 1732 1677
5570 2355 1819 1675
5571 2283 1689 1601
5572 2410 1871 1652
5573 2404 1871 1645
5574 2399 1799 1588
5575 2409 1834 1602
5576 2408 1850 1624
5577 2410 1879 1661
5578 2427 1955 1706
5579 2422 1987 1744
5580 2418 1950 1713
5581 2412 1922 1698
5582 2394 1889 1682
5583 2404 1899 1682
5584 2417 1914 1678
5585 2421 1886 1651
5586 2451 1886 1624
5587 2421 1828 1598
5588 2393 1798 1592
5589 2375 1776 1571
5590 2379 1774 1573
5591 2388 1773 1580
5592 2374 1789 1611
5593 2374 1809 1621
5594 2379 1805 1617
5595 2382 1850 1651
5596 2390 1877 1680
5597 2420 1943 1705
5598 2389 1916 1715
5599 2409 1960 1734
5600 2411 1946 1720
5601 2410 1941 1717
5602 2399 1918 1702
5603 2405 1914 1688
5604 2400 1899 1677
5605 2401 1852 1651
5606 2380 1821 1626
5607 2382 1790 1592
5608 2388 1784 1584
5609 2388 1764 1568
5610 2387 1765 1569
5611 2390 1767 1567
5612 2375 1776 1586
5613 2370 1779 1595
5614 2376 1810 1625
5615 2384 1881 1689
5616 2392 1936 1739
5617 2382 1988 1785
5618 2437 1977 1808
5619 2378 1985 1768
5620 2399 1921 1707
5621 2418 1896 1677
5622 2483 1858 1563
5623 2441 1865 1611
5624 2394 1887 1681
5625 2378 1857 1656
5626 2366 1840 1658
5627 2361 1819 1637
5628 2363 1803 1621
5629 2343 1760 1597
5630 2340 1751 1599
5631 2351 1775 1611
5632 2359 1786 1609
5633 2379 1808 1612
5634 2388 1817 1614
5635 2408 1864 1645
5636 2389 1893 1697
5637 2402 1936 1717
5638 2405 1946 1732
5639 2413 1977 1750
5640 2420 1938 1705
5641 2406 1928 1710
5642 2418 1930 1698
5643 2434 1942 1698
5644 2444 1959 1702
5645 2440 1923 1673
5646 2449 1893 1628
5647 2426 1852 1609
5648 2441 1879 1621
5649 2456 1904 1622
5650 2450 1935 1677
5651 2428 1984 1739
5652 2437 2075 1816
5653 2465 2109 1828
5654 2469 2163 1876
5655 2520 2251 1910
5656 2521 2268 1935
5657 2520 2302 1958
5658 2512 2297 1967
5659 2534 2289 1932
5660 2554 2261 1886
5661 2557 2278 1903
5662 2588 2299 1886
5663 2601 2292 1861
5664 2612 2250 1813
5665 2596 2152 1727
5666 2591 2070 1665
5667 2582 2041 1644
5668 2568 2069 1684
5669 2538 2092 1726
5670 2521 2157 1808
5671 2547 2206 1845
5672 2548 2182 1816
5673 2531 2083 1737
5674 2498 1972 1653
5675 2487 1969 1662
5676 2473 1970 1678
5677 2464 1984 1705
5678 2454 1959 1692
5679 2433 1951 1704
5680 2408 1956 1738
5681 2393 1952 1738
5682 2372 1943 1756
5683 2354 1928 1762
5684 2360 1897 1729
5685 2344 1850 1691
5686 2353 1831 1668
5687 2341 1793 1632
5688 2342 1769 1612
5689 2351 1776 1614
5690 2378 1775 1589
5691 2370 1777 1598
5692 2367 1802 1627
5693 2360 1805 1629
5694 2368 1780 1603
5695 2384 1829 1630
5696 2371 1871 1691
5697 2376 1918 1721
5698 2380 1919 1723
5699 2376 1940 1743
5700 2367 1926 1740
5701 2351 1914 1749
5702 2334 1853 1710
5703 2350 1865 1691
5704 2360 1873 1708
5705 2326 1821 1677
5706 2311 1780 1650
5707 2314 1720 1593
5708 2317 1706 1584
5709 2320 1717 1588
5710 2337 1752 1610
5711 2341 1777 1634
5712 2350 1796 1638
5713 2357 1760 1614
5714 2349 1784 1618
5715 2179 1736 1674
5716 2354 1869 1703
5717 2370 1918 1732
5718 2365 1946 1758
5719 2370 1979 1793
5720 2367 1969 1793
5721 2351 1964 1790
5722 2356 1941 1773
5723 2360 1925 1743
5724 2359 1901 1717
5725 2346 1825 1661
5726 2338 1776 1625
5727 2330 1740 1600
5728 2310 1747 1625
5729 2274 1679 1617
5730 2326 1749 1613
5731 2326 1736 1594
5732 2338 1749 1596
5733 2330 1765 1622
5734 2352 1839 1673
5735 2374 1945 1767
5736 2373 1988 1806
5737 2388 1977 1797
5738 2355 2014 1814
5739 2368 2016 1836
5740 2353 1930 1757
5741 2363 1883 1707
5742 2356 1897 1734
5743 2345 1867 1690
5744 2372 1873 1687
5745 2373 1880 1683
5746 2325 1857 1693
5747 2336 1820 1661
5748 2360 1821 1645
5749 2348 1798 1632
5750 2337 1818 1664
5751 2312 1790 1667
5752 2327 1802 1662
5753 2320 1799 1666
5754 2307 1800 1679
5755 2309 1845 1723
5756 2313 1863 1739
5757 2334 1896 1753
5758 2343 1895 1743
5759 2354 1938 1776
5760 2364 1934 1760
5761 2372 1934 1750
5762 2366 1925 1736
5763 2310 1870 1748
5764 2373 1947 1748
5765 2358 1869 1705
5766 2333 1846 1678
5767 2336 1817 1669
5768 2317 1799 1664
5769 2317 1771 1641
5770 2223 1699 1655
5771 2264 1684 1626
5772 2247 1748 1659
5773 2278 1798 1658
5774 2334 1823 1671
5775 2354 1871 1700
5776 2218 1695 1723
5777 2256 1856 1756
5778 2334 1908 1784
5779 2339 2038 1874
5780 2339 1984 1823
5781 2353 2013 1849
5782 2337 2036 1887
5783 2340 2009 1864
5784 2349 1989 1828
5785 2342 1940 1790
5786 2345 1945 1799
5787 2331 1883 1741
5788 2282 1730 1665
5789 2260 1662 1630
5790 2250 1692 1637
5791 2318 1787 1647
5792 2319 1751 1657
5793 2317 1803 1658
5794 2339 1812 1650
5795 2352 1866 1682
5796 1922 1412 1725
5797 2336 1912 1739
5798 2352 1945 1735
5799 2330 1939 1768
5800 2354 1983 1765
5801 2276 1889 1726
5802 2316 1869 1763
5803 2322 1976 1847
5804 2357 2129 1955
5805 2304 2111 2007
5806 2318 2068 1925
5807 2308 1888 1765
5808 2281 1769 1672
5809 2304 1731 1617
5810 2326 1697 1544
5811 2305 1642 1531
5812 2336 1752 1609
5813 2306 1796 1696
5814 2310 1852 1730
5815 2284 1856 1754
5816 2349 1950 1787
5817 2353 2004 1823
5818 2376 1985 1802
5819 2339 1940 1800
5820 2341 1928 1782
5821 2341 1966 1807
5822 2325 1964 1817
5823 2211 1864 1790
5824 1959 1619 1791
5825 2340 1906 1743
5826 2332 1859 1709
5827 2297 1797 1684
5828 2359 1857 1680
5829 2370 1838 1659
5830 2366 1857 1678
5831 2373 1845 1664
5832 2347 1857 1691
5833 2352 1857 1695
5834 2328 1853 1720
5835 2231 1798 1767
5836 2231 1901 1803
5837 1722 1342 1847
5838 1746 1542 1830
5839 898 537 1849
5840 394 35 1852
5841 1942 1594 1825
5842 2198 1773 1795
5843 2356 1899 1800
5844 2322 1966 1803
5845 2302 2002 1773
5846 2377 1952 1757
5847 2397 1944 1732
5848 2404 1965 1719
5849 2380 1897 1704
5850 2396 1902 1708
5851 2385 1919 1707
5852 2413 1964 1747
5853 2355 1947 1784
5854 2336 1975 1837
5855 2344 2031 1869
5856 2346 2048 1899
5857 2355 2073 1904
5858 2343 2017 1863
5859 2363 2016 1838
5860 2370 2014 1837
5861 2381 2014 1825
5862 2390 2004 1806
5863 2382 2018 1820
5864 2396 2034 1821
5865 2388 2003 1793
5866 2402 1977 1755
5867 2450 2002 1762
5868 2390 1962 1759
5869 2392 1928 1725
5870 2384 1963 1764
5871 2372 1943 1767
5872 2368 1964 1780
5873 2357 2007 1836
5874 2367 2036 1858
5875 2372 2117 1930
5876 2362 2156 1978
5877 2383 2145 1939
5878 2382 2024 1832
5879 2386 1993 1792
5880 2405 2055 1828
5881 2375 2065 1858
5882 2416 2100 1862
5883 2380 2090 1905
5884 2389 2133 1936
5885 2394 2101 1893
5886 2413 2077 1854
5887 2391 1965 1760
5888 2395 1912 1709
5889 2378 1851 1662
5890 2400 1879 1671
5891 2385 1915 1719
5892 2392 1971 1772
5893 2388 1987 1788
5894 2382 1982 1789
5895 2364 1999 1828
5896 2367 2028 1843
5897 2384 2043 1843
5898 2384 2050 1856
5899 2383 2060 1868
5900 2377 2067 1873
5901 2372 2086 1900
5902 2364 2043 1859
5903 2371 2002 1818
5904 2378 2021 1831
5905 2368 1979 1806
5906 2368 1962 1782
5907 2354 1913 1749
5908 2369 1910 1731
5909 2381 1888 1715
5910 2357 1909 1747
5911 2360 1920 1752
5912 2361 1951 1783
5913 2355 1975 1811
5914 2342 1973 1828
5915 2339 2031 1897
5916 2347 2066 1906
5917 2362 2088 1908
5918 2361 2055 1877
5919 2363 2062 1888
5920 2360 2057 1881
5921 2348 2021 1867
5922 2345 2021 1854
5923 2344 1997 1831
5924 2350 2011 1854
5925 2332 1997 1853
5926 2319 1963 1832
5927 2317 1925 1795
5928 2326 1930 1799
5929 2317 1870 1752
5930 2322 1911 1785
5931 2348 1934 1769
5932 2364 1884 1713
5933 2345 1875 1723
5934 2339 1926 1782
5935 2363 1988 1809
5936 2374 1941 1758
5937 2375 1984 1800
5938 2350 1944 1787
5939 2338 1964 1822
5940 2320 1979 1860
5941 2312 1977 1860
5942 2308 1952 1833
5943 2304 1920 1807
5944 2320 1947 1813
5945 2327 1913 1772
5946 2333 1897 1749
5947 2309 1816 1692
5948 2316 1806 1674
5949 2318 1775 1641
5950 2325 1776 1639
5951 2313 1782 1657
5952 2304 1779 1669
5953 2300 1789 1689
5954 2284 1803 1715
5955 2276 1850 1762
5956 2291 1875 1778
5957 2321 1929 1803
5958 2328 1949 1808
5959 2325 1945 1805
5960 2326 1924 1797
5961 2327 1939 1807
5962 2329 1929 1791
5963 2330 1921 1788
5964 2326 1923 1775
5965 2320 1869 1735
5966 2328 1845 1708
5967 2321 1803 1674
5968 2319 1781 1648
5969 2310 1745 1624
5970 2305 1743 1630
5971 2302 1779 1670
5972 2299 1793 1678
5973 2303 1822 1705
5974 2303 1847 1729
5975 2293 1893 1795
5976 2279 1892 1809
5977 2303 1928 1815
5978 2304 1939 1827
5979 2313 1947 1830
5980 2308 1911 1799
5981 2306 1930 1822
5982 2319 1966 1846
5983 2312 1975 1860
5984 2315 2026 1903
5985 2311 2030 1906
5986 2316 1925 1799
5987 2316 1758 1627
5988 2324 1699 1576
5989 2305 1671 1554
5990 2286 1651 1552
5991 2279 1657 1566
5992 2276 1708 1627
5993 2287 1752 1657
5994 2274 1794 1712
5995 2274 1843 1760
5996 2272 1884 1803
5997 2294 1994 1889
5998 2303 2014 1902
5999 2307 1991 1870
6000 2305 1947 1831
6001 2297 1923 1820
6002 2306 1915 1800
6003 2319 1916 1780
6004 2326 1898 1766
6005 2299 1848 1735
6006 2297 1815 1716
6007 2289 1787 1695
6008 2294 1767 1672
6009 2267 1709 1638
6010 2277 1695 1620
6011 2268 1732 1657
6012 2260 1786 1721
6013 2259 1820 1755
6014 2268 1840 1762
6015 2297 1925 1817
6016 2299 1925 1818
6017 2324 2044 1915
6018 2338 2087 1926
6019 2341 2011 1850
6020 2328 1926 1788
6021 2331 1899 1752
6022 2332 1848 1703
6023 2316 1895 1771
6024 2330 1877 1733
6025 2328 1831 1694
6026 2324 1811 1678
6027 2311 1808 1689
6028 2317 1814 1687
6029 2306 1798 1692
6030 2295 1818 1716
6031 2305 1789 1683
6032 2293 1753 1651
6033 2281 1741 1657
6034 2275 1785 1709
6035 2287 1854 1762
6036 2290 1883 1786
6037 2305 1925 1807
6038 2307 1918 1801
6039 2342 1954 1814
6040 2316 1949 1821
6041 2301 1928 1820
6042 2307 1923 1803
6043 2318 1902 1775
6044 2311 1875 1764
6045 2303 1863 1732
6046 2302 1824 1709
6047 2291 1775 1672
6048 2293 1769 1670
6049 2299 1746 1633
6050 2303 1753 1640
6051 2303 1788 1674
6052 2289 1821 1715
6053 2293 1817 1718
6054 2280 1810 1720
6055 2304 1843 1741
6056 2308 1907 1799
6057 2307 1942 1838
6058 2309 1964 1845
6059 2301 1956 1849
6060 2303 1944 1835
6061 2294 1917 1822
6062 2311 1915 1805
6063 2313 1935 1810
6064 2325 1939 1808
6065 2318 1884 1749
6066 2328 1863 1726
6067 2302 1814 1705
